timestamp,emg1,emg2,emg3,emg4,emg5,emg6,emg7,emg8
1525692447011292,-4,-1,4,5,1,-2,-2,-1
1525692447011292,-3,4,4,-1,2,1,0,0
1525692447012292,-4,-2,-6,-16,-7,-5,-3,-4
1525692447012292,1,9,4,1,3,2,4,2
1525692447013292,-2,-7,18,4,3,0,0,-2
1525692447013292,5,1,-59,3,3,-1,-1,0
1525692447014292,-6,2,8,2,-1,0,-1,-1
1525692447014292,6,-1,-4,-6,-7,-3,-3,-2
1525692447021293,6,1,16,-5,4,2,0,1
1525692447021293,-2,-1,7,-7,-4,-1,-1,-3
1525692447027293,1,7,2,13,2,-1,2,0
1525692447027293,5,-5,-9,-8,-1,1,0,0
1525692447042294,-1,3,-2,0,-4,-1,-3,-3
1525692447042294,3,-4,6,-9,-3,-1,0,0
1525692447051295,4,1,-6,-3,0,0,-1,0
1525692447051295,1,0,15,1,0,-2,0,-1
1525692447059295,-3,0,-14,5,0,0,1,-2
1525692447059295,-5,-4,3,1,0,1,-2,-3
1525692447083296,-4,3,7,-2,0,0,-1,0
1525692447083296,-8,-8,-4,3,0,-1,-2,-1
1525692447121299,1,8,9,4,4,0,-1,-1
1525692447121299,-4,-9,-8,-2,0,-1,0,0
1525692447122299,-3,14,7,5,1,-2,-1,0
1525692447122299,7,-5,-9,-11,-5,0,2,1
1525692447125299,6,10,18,5,-6,-4,-3,1
1525692447125299,9,-1,12,5,6,3,-3,2
1525692447126299,-36,-5,-33,-21,1,3,2,-8
1525692447126299,5,19,18,7,0,-1,-3,1
1525692447132299,-7,-64,-51,-10,-3,-2,0,-4
1525692447132299,8,20,15,7,-4,-4,-1,0
1525692447139300,13,-3,12,7,-3,-2,-1,3
1525692447139300,-9,8,-3,-4,0,-2,-2,-2
1525692447147300,0,-6,8,0,0,0,1,0
1525692447147300,-7,-8,-22,-4,-3,-1,-3,-2
1525692447162301,3,7,9,-3,-4,-3,-3,-3
1525692447162301,-2,-6,-5,-1,1,1,0,-2
1525692447169301,3,24,13,1,-1,0,1,3
1525692447169301,-5,-11,-7,-1,1,0,-9,-3
1525692447193303,12,-6,-1,0,-3,-1,2,2
1525692447193303,-1,9,-11,-4,-5,-4,-2,-1
1525692447194303,-2,-16,-8,-5,0,-2,-1,-2
1525692447194303,2,16,-6,-1,4,4,6,3
1525692447207304,10,-6,2,6,2,0,0,4
1525692447207304,-7,-18,12,-8,-4,-4,-3,-3
1525692447208304,11,-4,3,6,3,2,1,4
1525692447208304,-5,15,-9,-12,-5,-5,-1,-4
1525692447230305,-2,-8,2,5,5,4,1,-3
1525692447230305,3,19,0,8,0,-2,1,0
1525692447231305,3,25,3,-5,-2,-1,0,1
1525692447231305,-8,-87,-9,-7,-5,-43,-1,-2
1525692447253306,0,57,16,1,-2,38,-2,-2
1525692447253306,-1,16,5,-2,0,3,-1,-2
1525692447254306,-9,-66,-58,-4,-2,-7,-2,-5
1525692447254306,0,42,12,6,4,-15,4,7
1525692447268307,1,-7,-2,-8,-6,14,-3,-1
1525692447268307,2,24,24,8,7,-31,0,-17
1525692447268307,0,-1,-34,1,-6,63,-7,26
1525692447268307,-12,-10,-12,-10,-11,-23,2,-6
1525692447290308,-4,-12,-9,-1,-2,-4,-2,-1
1525692447290308,3,-6,10,4,3,8,4,11
1525692447291308,-2,20,12,-14,5,-12,4,-7
1525692447291308,-2,27,37,19,2,15,-3,-5
1525692447313310,2,-43,9,-4,-6,-11,0,8
1525692447313310,-7,6,-23,-3,1,11,-1,-5
1525692447314310,-6,-36,-35,0,-3,-23,-3,-6
1525692447314310,2,34,56,-6,-4,19,-3,4
1525692447327310,2,-25,-51,1,1,-16,-3,-11
1525692447327310,-7,-35,-1,-10,-5,-7,5,1
1525692447328310,2,42,47,5,-1,-5,-1,11
1525692447328310,10,13,-16,4,4,16,2,-16
1525692447350312,-1,21,30,3,2,-3,-1,2
1525692447350312,-2,-85,-3,5,-1,1,-6,-2
1525692447351312,-1,54,10,0,-1,-2,4,0
1525692447351312,9,-5,75,-1,-5,2,-8,8
1525692447373313,-11,-37,-104,-10,-3,-18,-1,-11
1525692447373313,4,16,6,-1,-2,9,-4,-7
1525692447374313,3,20,35,2,2,-4,2,-5
1525692447374313,1,-23,-19,3,2,3,1,13
1525692447387314,2,18,11,-2,2,-1,1,-4
1525692447387314,-1,6,-6,-3,-3,4,18,6
1525692447388314,-2,16,6,2,-4,-15,-23,-12
1525692447388314,0,-23,-20,-3,-1,14,-4,4
1525692447410315,-1,13,-36,1,-1,-11,21,8
1525692447410315,-4,26,68,2,2,-8,-28,-8
1525692447411315,-2,-30,-11,1,-1,3,14,6
1525692447411315,-2,-31,-81,-9,-3,18,-18,-14
1525692447433316,-8,22,30,-5,-3,-9,-2,6
1525692447433316,14,27,-3,4,4,6,6,2
1525692447434317,-18,-64,33,2,0,-15,4,-12
1525692447434317,1,23,-9,2,1,-2,-2,1
1525692447447317,6,17,2,0,1,11,1,-8
1525692447447317,-4,19,13,-1,-2,-9,-2,7
1525692447455318,9,18,17,0,-1,6,-7,-4
1525692447455318,1,-15,-17,5,1,-2,10,4
1525692447470319,-1,-3,18,0,1,1,-10,-3
1525692447470319,5,23,-10,-3,-2,-2,1,9
1525692447471319,6,12,17,2,2,1,1,2
1525692447471319,-9,-4,-60,-9,0,2,6,-6
1525692447493320,1,0,39,1,-3,-5,-2,14
1525692447493320,0,6,-1,0,-1,4,-1,3
1525692447494320,-5,-40,-58,-7,-4,-16,0,-9
1525692447494320,3,10,51,0,-1,-20,22,0
1525692447507321,-2,-44,15,0,-1,34,-22,7
1525692447507321,-8,-28,-44,-4,-3,-15,4,20
1525692447515321,-3,10,4,-1,-1,-4,-2,-21
1525692447515321,-1,20,39,3,3,33,4,2
1525692447530322,4,-4,-9,1,0,-12,9,0
1525692447530322,-2,-13,-1,1,1,38,1,-4
1525692447531322,-2,33,1,0,-3,-18,-5,2
1525692447531322,-3,-5,14,4,-1,-23,-3,3
1525692447553323,4,-7,-44,-3,1,4,1,-3
1525692447553323,-7,-33,-12,0,-2,-2,-7,-7
1525692447554323,-2,-17,-20,-4,-1,3,5,6
1525692447554323,2,49,28,3,-3,5,-5,0
1525692447567324,6,-65,17,-4,0,-3,-4,-3
1525692447567324,-2,36,2,16,5,-14,2,-10
1525692447575325,-1,-42,12,-5,0,8,8,10
1525692447575325,3,-6,-61,3,-4,0,-8,-7
1525692447590325,-6,29,8,-3,-5,-13,-1,-5
1525692447590325,1,-19,10,-12,-4,-17,-3,-1
1525692447591325,2,13,15,17,5,31,-1,2
1525692447591325,1,1,8,-5,1,-15,0,3
1525692447613327,-2,20,16,3,3,14,-1,8
1525692447613327,-4,-6,-45,-11,-5,0,-2,-28
1525692447614327,-1,14,15,-1,0,-2,-3,3
1525692447614327,-2,-19,-27,-7,-3,-10,4,0
1525692447627328,-4,9,-3,1,-1,-8,1,-1
1525692447627328,2,-10,38,1,-1,1,-1,5
1525692447635328,2,30,-41,-6,0,-1,-1,-9
1525692447635328,0,-1,6,5,2,-1,-3,6
1525692447650329,0,-32,-2,-6,-3,-6,-9,-8
1525692447650329,-3,-21,-16,-2,-1,5,-6,4
1525692447651329,3,37,16,0,-1,-3,-2,-7
1525692447651329,0,-64,-3,-6,-2,2,-4,3
1525692447673330,-6,31,-14,8,5,-4,6,-6
1525692447673330,2,-44,6,-5,1,6,5,2
1525692447674330,-2,10,-37,-4,-1,-9,-8,2
1525692447674330,4,17,30,2,-2,0,3,-6
1525692447687331,-1,-14,18,-2,-5,-41,-1,9
1525692447687331,-3,15,-14,5,2,8,-5,1
1525692447695331,2,2,26,-5,0,37,4,4
1525692447695331,-5,0,-5,2,-3,-38,-1,-6
1525692447710332,-2,12,-5,1,-1,26,-8,0
1525692447710332,6,-1,-15,-3,-4,-27,-3,3
1525692447711332,-14,-33,0,-4,-1,-6,-1,-8
1525692447711332,-4,23,-10,1,2,11,1,-2
1525692447733334,-2,-15,35,1,-1,-11,-1,0
1525692447733334,5,40,17,-6,-3,1,3,1
1525692447734334,-1,-37,13,4,1,0,-6,6
1525692447734334,-2,22,-90,-9,-6,6,0,-3
1525692447747334,1,26,40,2,1,1,6,-6
1525692447747334,-2,-28,-21,4,0,12,1,2
1525692447755335,0,20,37,3,-1,-9,2,0
1525692447755335,-3,-2,-2,0,-1,1,-7,1
1525692447770336,4,6,-7,-2,0,-3,-1,-4
1525692447770336,0,9,3,-2,0,11,5,0
1525692447771336,0,23,11,3,-1,-7,-6,0
1525692447771336,2,-22,12,-4,-1,4,2,-7
1525692447793337,0,0,-26,-5,-1,-9,-4,14
1525692447793337,-1,-1,3,-1,-1,15,2,0
1525692447794337,-3,-1,-28,-2,-5,-22,-3,-15
1525692447794337,2,-5,6,0,1,4,-1,2
1525692447807338,-6,13,12,-4,-1,3,0,-7
1525692447807338,-3,-25,-9,2,1,-6,-2,0
1525692447815338,1,20,-7,-2,-4,6,-1,3
1525692447815338,-1,-7,53,0,-1,0,-1,-1
1525692447830339,-6,-21,-73,-5,-1,-3,-2,-7
1525692447830339,1,34,-16,4,-1,-3,-1,13
1525692447831339,3,-3,-1,2,2,7,6,-21
1525692447831339,-2,12,37,-1,0,-5,-3,1
1525692447853340,2,3,13,0,1,3,0,-1
1525692447853340,0,-22,2,0,-1,8,0,8
1525692447854341,-2,-4,-11,-1,1,8,-2,-6
1525692447854341,0,-11,-5,1,2,-5,-3,3
1525692447876342,4,4,2,0,0,10,5,-2
1525692447876342,-3,-1,-11,-5,-4,-17,-7,-6
1525692447877342,0,-2,7,-4,-1,-6,0,9
1525692447877342,1,-1,6,-2,0,5,-1,-1
1525692447890343,0,6,-17,1,2,11,1,-1
1525692447890343,0,9,32,7,3,-9,2,-5
1525692447891343,-4,-8,-27,-10,-8,-6,-4,6
1525692447891343,-6,15,-9,-2,-1,1,-3,-2
1525692447913344,3,-5,19,-2,-5,-7,-1,-5
1525692447913344,1,22,1,1,1,1,0,4
1525692447914344,1,-13,3,1,2,3,-2,4
1525692447914344,-1,-34,-8,-1,0,-1,-1,-2
1525692447936345,-2,12,3,1,-2,-8,-1,-3
1525692447936345,-1,-2,32,-2,-2,3,-1,-8
1525692447937345,1,-12,-58,-2,-1,-7,-1,7
1525692447937345,2,6,-2,-4,-3,4,0,0
1525692447950346,-4,-26,4,3,1,2,-1,6
1525692447950346,1,17,10,-4,-4,-7,-4,-11
1525692447951346,4,-14,31,4,4,2,14,14
1525692447951346,-1,3,-55,-1,-1,2,-4,-2
1525692447973347,-6,-24,21,-3,-1,-2,-1,-2
1525692447973347,4,-5,-29,-4,-1,1,-2,5
1525692447974347,2,30,18,1,-2,-1,-1,-2
1525692447974347,-3,-35,4,-1,-2,-3,-2,-13
1525692447996349,-3,33,32,1,-4,-1,0,7
1525692447996349,-5,-1,-9,-4,-4,-6,1,-7
1525692447997349,1,-9,-16,-1,-3,-42,-5,3
1525692447997349,-9,-6,-14,0,4,46,1,-4
1525692448010349,1,8,-4,2,2,-5,-2,-5
1525692448010349,-1,-14,-6,0,-1,-5,-1,-2
1525692448011350,0,6,4,1,-3,1,-1,-2
1525692448011350,3,4,18,-2,-2,-16,-1,6
1525692448033351,0,25,2,0,0,1,-1,-6
1525692448033351,0,-23,12,-1,-1,7,1,-3
1525692448034351,-4,-100,-49,0,2,2,-2,1
1525692448034351,1,34,-17,-3,-4,-6,2,-1
1525692448056352,2,14,2,-2,-2,6,2,15
1525692448056352,0,18,-20,1,-2,-8,-6,-33
1525692448057352,-1,23,52,-2,1,6,0,-1
1525692448057352,4,21,46,6,1,-7,-3,4
1525692448070353,-4,-45,-12,-5,-2,2,11,8
1525692448070353,-4,5,-17,1,2,-2,-24,-3
1525692448071353,-4,8,1,3,-2,7,-2,-10
1525692448071353,3,8,-9,-2,0,-5,1,-3
1525692448092354,6,11,-1,-2,0,-5,-1,4
1525692448092354,-1,-22,-3,-2,-1,-16,5,4
1525692448101355,-2,0,1,-4,-1,25,0,-4
1525692448101355,0,11,2,0,-1,-8,-3,7
1525692448116356,-5,-9,-13,0,-1,-5,-7,-13
1525692448116356,-3,-28,20,-4,-2,-3,3,0
1525692448118356,4,48,2,1,-1,3,2,1
1525692448118356,-3,-39,-64,-7,-3,11,3,3
1525692448138357,4,11,8,4,2,10,-1,-2
1525692448138357,-3,-14,4,-2,0,-3,4,0
1525692448140357,-1,16,9,0,-1,-6,-6,4
1525692448140357,-1,12,27,3,2,6,0,-3
1525692448152358,0,-3,-11,-2,2,-10,3,23
1525692448152358,2,25,5,-2,-2,5,-6,-19
1525692448161358,1,-11,5,1,-3,-12,1,-3
1525692448161358,-6,-29,-10,-5,-3,0,-4,-1
1525692448176359,4,8,-9,3,0,0,0,6
1525692448176359,-3,-13,-1,-1,0,17,9,13
1525692448178359,-4,2,2,-5,-3,-9,-2,1
1525692448178359,0,-8,-28,-2,2,-3,-3,-5
1525692448198360,-7,-16,8,-3,-3,-3,-4,-14
1525692448198360,3,50,16,5,1,11,1,6
1525692448200360,4,-11,41,4,3,20,0,8
1525692448200360,-10,-48,-75,-11,-3,-8,5,-5
1525692448212361,0,16,24,-3,1,6,-16,-29
1525692448212361,1,19,9,-1,-2,8,-24,28
1525692448221362,-1,28,8,2,-1,-68,19,-14
1525692448221362,1,-2,55,4,3,75,-3,-2
1525692448236362,2,-3,-37,-2,-4,-32,23,40
1525692448236362,-2,1,-21,-2,0,24,-12,-64
1525692448238362,-1,-22,0,-3,-3,-42,-13,13
1525692448238362,10,15,8,2,3,-16,19,9
1525692448260364,2,-7,-6,0,1,17,-23,-10
1525692448260364,3,-1,7,-2,0,-12,-16,-10
1525692448262364,-12,-8,-17,-2,-2,12,1,-77
1525692448262364,15,4,1,-1,-3,-20,30,29
1525692448272364,-2,9,24,0,2,11,-61,48
1525692448272364,-11,-2,-9,2,-2,-24,12,-78
1525692448281365,10,-3,-19,-2,-4,34,-19,42
1525692448281365,-4,13,21,0,-1,-42,1,-50
1525692448296366,5,-8,5,3,-2,11,52,2
1525692448296366,1,-18,-26,-6,1,-29,6,22
1525692448298366,-16,-7,-10,-3,-5,17,-36,-31
1525692448298366,-2,23,32,6,2,-16,56,9
1525692448318367,8,-24,-5,0,3,7,6,0
1525692448318367,-2,-14,-6,-2,-6,-33,-58,28
1525692448320367,12,9,-4,0,9,104,91,30
1525692448320367,-11,13,16,0,-2,5,-97,13
1525692448341368,-14,-24,-21,-7,-14,-57,112,-61
1525692448341368,7,-3,-2,-1,2,92,50,18
1525692448343369,-4,10,0,-4,-3,-27,47,-35
1525692448343369,21,4,20,10,5,-50,-13,70
1525692448355369,-26,0,-5,-3,2,25,5,-50
1525692448355369,-2,10,0,5,-2,-13,-14,-54
1525692448362370,-28,-19,-6,-9,-7,2,19,102
1525692448362370,-15,-1,-4,-2,-8,-53,17,10
1525692448378371,8,20,11,1,1,63,-79,92
1525692448378371,32,-3,-6,0,2,-41,76,127
1525692448380371,-25,1,-1,3,1,9,-78,-59
1525692448380371,-24,-3,-7,1,3,0,-11,-63
1525692448401372,35,7,5,-1,-3,-36,42,34
1525692448401372,-27,17,12,-4,3,70,-69,-80
1525692448403372,40,15,0,3,-5,-100,-50,91
1525692448403372,3,-10,6,0,0,36,41,50
1525692448415373,-31,-8,-14,-6,6,100,82,-54
1525692448415373,6,23,9,11,2,-44,-45,25
1525692448422373,-3,-9,-12,-8,0,-11,92,-107
1525692448422373,3,19,24,6,-6,-1,-65,30
1525692448438374,-1,6,-14,-2,-5,-85,44,-16
1525692448438374,32,-16,-4,-4,-4,-51,-81,108
1525692448440374,23,20,-12,-2,12,73,88,-79
1525692448440374,-59,-42,-14,-11,8,67,-90,-97
1525692448461375,9,-22,-11,-2,-17,-70,47,102
1525692448461375,-5,-7,-8,-1,5,4,-15,-128
1525692448463375,-17,4,-3,2,-8,-119,9,127
1525692448463375,31,-3,-23,-15,6,114,88,-11
1525692448475376,4,20,5,6,-10,-126,-25,41
1525692448475376,-23,-8,1,-8,-21,121,-69,-53
1525692448482376,21,-30,-18,-9,-13,26,-36,105
1525692448482376,-4,-19,-4,2,-6,-92,-11,-27
1525692448498377,-5,42,29,12,54,92,62,-128
1525692448498377,3,-22,-11,1,9,-82,-35,97
1525692448500377,-10,27,20,5,-33,-77,-5,-26
1525692448500377,-32,-29,-21,-14,-52,-41,119,69
1525692448521379,33,16,6,-4,36,-15,-97,-33
1525692448521379,25,-8,-10,-1,-13,-128,65,51
1525692448523379,-30,1,-7,-9,-12,-46,-44,-86
1525692448523379,81,53,14,6,8,-68,71,51
1525692448535379,-12,8,8,14,35,55,0,-71
1525692448535379,-75,-25,-16,-7,10,100,78,-48
1525692448542380,34,-4,3,2,-25,-124,-128,101
1525692448542380,24,22,1,20,-5,-68,-44,-77
1525692448558381,-21,13,-11,-19,-31,96,-113,-83
1525692448558381,-8,-83,-5,3,11,-122,-23,-54
1525692448560381,14,47,16,11,81,127,3,-128
1525692448560381,-24,-25,-6,-4,0,-48,3,-47
1525692448581382,-18,-32,-7,-6,-47,-128,-128,45
1525692448581382,-31,-45,5,-3,21,94,78,42
1525692448582382,19,15,-47,-10,-30,-95,34,-73
1525692448582382,-30,-5,-5,-14,28,3,-45,-11
1525692448594383,30,14,18,10,-19,-37,60,15
1525692448594383,17,10,5,0,8,-56,49,88
1525692448603383,17,-18,4,-4,16,94,-13,57
1525692448603383,-38,-6,-1,9,-15,-128,-34,0
1525692448618384,8,6,-10,-13,-11,84,19,-49
1525692448618384,10,75,10,-4,-18,68,125,-86
1525692448620384,8,-38,9,3,-22,26,-32,75
1525692448620384,31,39,14,12,15,-38,10,-75
1525692448640385,-31,-56,0,2,-9,-60,-31,18
1525692448640385,14,51,11,0,3,103,-39,-86
1525692448642386,-23,28,20,4,3,11,-62,-24
1525692448642386,21,-28,-8,-11,-7,31,-64,-45
1525692448654386,-47,10,1,7,27,78,25,127
1525692448654386,13,-37,-4,6,-30,-116,-63,127
1525692448663387,-1,21,39,11,35,-27,-63,-80
1525692448663387,-3,37,-66,-5,3,45,62,125
1525692448678388,15,-26,-23,-8,-8,-105,-55,-64
1525692448678388,-6,-7,-25,-2,-18,-12,16,-12
1525692448680388,-15,10,3,1,3,26,87,8
1525692448680388,4,-52,30,4,4,109,-3,9
1525692448701389,22,57,14,10,15,-128,74,16
1525692448701389,4,9,-5,-8,-13,34,21,12
1525692448702389,-11,-52,-20,-4,-4,10,43,-16
1525692448702389,-7,29,12,-5,1,52,-3,39
1525692448715390,2,-25,-11,-1,-11,-13,111,-87
1525692448715390,-28,7,22,-6,25,56,-24,-10
1525692448722390,5,-13,-9,4,14,8,14,46
1525692448722390,0,7,5,0,-9,-37,-20,33
1525692448738391,5,10,11,1,0,-77,-48,35
1525692448738391,9,10,1,1,-3,-56,-2,-26
1525692448740391,-22,-2,-3,4,3,-55,43,-40
1525692448740391,24,26,7,0,1,27,-32,-6
1525692448761392,-20,-1,-1,-6,-10,47,3,4
1525692448761392,5,-23,14,3,-4,-14,8,11
1525692448762392,-17,-37,-59,-11,-6,-31,-2,20
1525692448762392,8,28,23,-1,-1,46,8,-27
1525692448775393,0,-33,-18,-8,4,-43,-42,8
1525692448775393,6,-9,0,8,14,73,23,56
1525692448782394,2,14,24,2,-1,71,-27,-68
1525692448782394,3,-9,3,4,12,-49,-19,-8
1525692448798395,8,9,2,3,-4,9,1,-52
1525692448798395,0,8,-7,0,-5,-75,7,-50
1525692448800395,15,-18,11,2,-3,-10,-8,109
1525692448800395,-3,11,-1,-1,2,-10,0,-3
1525692448821396,-6,-18,2,-4,-11,11,-4,13
1525692448821396,4,17,-3,-1,1,-32,-21,-5
1525692448823396,-9,-1,-2,-1,-6,-2,-5,-35
1525692448823396,-5,-5,1,-5,-5,-9,1,-14
1525692448834397,15,-6,-5,-3,0,9,-21,33
1525692448834397,-19,2,-1,-4,0,12,-10,-6
1525692448843397,2,-1,7,11,0,0,-8,10
1525692448843397,-8,-17,-2,-6,-4,-2,8,4
1525692448858398,4,-7,-2,-6,1,50,-7,28
1525692448858398,0,9,7,10,-3,-26,-12,-3
1525692448860398,-5,-8,-7,-6,-1,-27,11,-11
1525692448860398,-3,-15,-8,-4,-4,-19,-10,0
1525692448882399,-9,4,-3,0,-3,18,-2,1
1525692448882399,5,3,-3,-6,-7,-43,-8,-2
1525692448884399,3,4,8,1,1,-7,-5,2
1525692448884399,-8,19,-4,-5,-3,-1,1,-4
1525692448894400,2,-65,-12,-6,-2,27,-12,17
1525692448894400,3,32,19,5,1,-8,-2,3
1525692448903401,-1,-11,12,-1,0,-15,3,3
1525692448903401,-5,-9,-23,-6,-1,2,-4,-3
1525692448918401,-3,21,-4,-3,-2,7,-1,1
1525692448918401,4,3,8,7,2,-7,-3,1
1525692448920402,4,15,3,-3,-1,3,-1,-6
1525692448920402,-2,-36,24,3,1,3,3,-1
1525692448941403,0,2,-8,-1,0,12,-7,6
1525692448941403,-1,-12,-20,-9,-3,3,-3,-1
1525692448942403,0,20,6,-6,-3,0,-3,0
1525692448942403,-3,-11,2,5,1,-2,3,1
1525692448954403,3,8,2,8,1,3,0,5
1525692448954403,-1,-5,-10,4,0,-3,-4,0
1525692448963404,-3,-7,-13,-15,-5,-4,3,-5
1525692448963404,-3,-4,6,15,-1,-5,-2,1
1525692448978405,2,15,8,5,1,10,-3,1
1525692448978405,-2,2,0,-18,-1,2,2,-1
1525692448980405,3,-8,-12,-7,3,0,-3,2
1525692448980405,-7,-10,-21,5,2,0,1,-2
1525692449001406,4,6,7,-3,-4,5,-1,6
1525692449001406,0,5,-2,5,-4,-3,-2,-2
1525692449003406,1,2,14,-21,-3,-6,-1,-1
1525692449003406,0,-3,-1,14,-3,-22,0,3
1525692449014407,-1,-22,0,12,8,14,0,1
1525692449014407,3,57,7,-3,2,31,-1,1
1525692449023407,-6,-41,-21,-2,-5,-8,0,-4
1525692449023407,-3,-42,-30,-18,-3,2,0,-3
1525692449037408,-6,23,6,-17,-8,-29,-8,-2
1525692449037408,1,-4,14,14,0,-8,-1,0
1525692449044409,4,62,31,17,5,10,0,2
1525692449044409,6,13,58,-1,6,3,2,2
1525692449060410,-6,-80,-80,7,-3,4,1,-3
1525692449060410,-5,-7,-12,-16,-8,-7,-5,-4
1525692449062410,-3,5,-7,2,-1,-5,0,-2
1525692449062410,1,-23,7,-22,2,0,2,-2
1525692449074410,3,41,-25,-5,-1,7,1,2
1525692449074410,3,3,11,-10,-1,-5,-2,1
1525692449083411,-8,-45,-17,-11,-5,-7,-3,-2
1525692449083411,4,35,9,26,5,7,1,-1
1525692449098412,3,17,29,8,4,9,-1,1
1525692449098412,0,-11,-11,8,0,-8,0,2
1525692449100412,-5,-7,-5,0,-7,-12,-3,-3
1525692449100412,-6,0,0,-15,-6,7,0,-6
1525692449121413,17,74,6,13,12,22,4,13
1525692449121413,-7,-112,-1,-9,-2,-6,-2,-10
1525692449122413,-21,63,-56,-21,-15,-9,-8,-12
1525692449122413,5,19,-28,-2,1,-2,-1,0
1525692449134414,-4,7,44,5,1,-9,-1,-2
1525692449134414,13,40,29,10,4,4,4,8
1525692449143414,7,-11,34,18,6,6,1,5
1525692449143414,-5,-28,-56,-8,-1,1,-3,0
1525692449158415,-4,-4,15,-3,-4,-5,-2,-4
1525692449158415,-3,-17,-15,-17,3,-1,-1,-1
1525692449160415,0,-29,10,7,-4,0,-1,-1
1525692449160415,5,64,35,1,-1,-1,1,4
1525692449180416,4,-12,-15,-6,1,2,2,1
1525692449180416,-18,-45,32,-12,-10,-8,-7,-10
1525692449182416,4,11,-29,-5,2,0,-1,0
1525692449182416,14,68,88,19,2,2,2,6
1525692449194417,-17,-108,-48,-3,-3,-4,-3,-7
1525692449194417,-11,-40,-67,4,-5,-41,-5,-4
1525692449203418,1,30,-63,-15,-2,1,1,-3
1525692449203418,2,-29,61,1,1,35,-7,-8
1525692449218419,12,46,1,5,2,30,2,34
1525692449218419,6,59,-1,6,-4,-47,4,-16
1525692449220419,6,8,42,3,4,14,-6,-19
1525692449220419,-12,-106,-88,-15,-3,-18,2,-9
1525692449240420,-1,107,30,-2,-3,9,-1,-13
1525692449240420,4,14,16,5,3,2,-3,14
1525692449242420,4,14,8,10,4,1,5,13
1525692449242420,-5,7,25,5,1,-15,-1,-7
1525692449265421,4,-52,0,-7,-1,-1,-4,-2
1525692449265421,-7,9,-31,-3,-2,16,4,1
1525692449267421,4,-14,29,9,3,-12,1,-3
1525692449267421,11,59,23,1,0,19,1,9
1525692449278422,-29,-72,-31,-12,-3,-25,-2,-10
1525692449278422,0,23,-42,-3,0,13,-4,-1
1525692449280422,2,16,37,3,-3,-6,-1,7
1525692449280422,-2,22,20,0,0,2,-7,-3
1525692449300423,1,-5,-54,-10,-1,5,-1,2
1525692449300423,3,44,0,3,3,20,0,10
1525692449302423,-2,-23,43,1,-5,23,16,2
1525692449302423,-3,33,-22,4,-2,-49,1,-10
1525692449323425,1,26,40,1,1,-12,-3,4
1525692449323425,4,-10,-11,-3,-1,34,-1,-25
1525692449325425,-5,-28,-22,-7,-2,19,-5,14
1525692449325425,-3,16,-6,5,-3,-16,-4,-30
1525692449338425,6,-17,10,8,1,-8,0,-1
1525692449338425,-15,-18,-14,-7,-3,-5,0,7
1525692449340426,7,29,11,3,0,3,-2,-3
1525692449340426,-11,-50,-17,-6,-2,4,-1,4
1525692449360427,-17,32,-28,-6,-4,-5,-3,-3
1525692449360427,21,-5,63,14,5,5,0,1
1525692449363427,-8,19,-47,-7,-4,-15,0,0
1525692449363427,0,-29,-56,-8,-5,-41,-2,3
1525692449383428,9,-12,18,4,4,30,0,-1
1525692449383428,-1,72,31,-2,3,16,2,6
1525692449385428,0,-71,-7,8,4,24,2,2
1525692449385428,10,60,59,11,3,2,9,4
1525692449397429,-22,-65,-22,-24,-14,-9,-7,-26
1525692449397429,-1,97,-37,-4,-3,-20,-2,1
1525692449404429,7,35,35,10,5,-13,-6,-4
1525692449404429,1,1,-38,2,4,40,10,11
1525692449420430,6,11,44,11,2,-25,0,3
1525692449420430,-4,-27,11,-11,-3,0,-5,-2
1525692449422430,-3,-22,-21,6,0,-15,-2,-5
1525692449422430,2,14,19,-3,-1,11,-4,10
1525692449443431,3,2,-9,2,2,-8,0,-3
1525692449443431,-6,-51,-31,-1,-3,-9,-4,0
1525692449445432,1,37,17,-4,0,19,0,2
1525692449445432,-2,-11,-20,-7,-3,7,-3,1
1525692449457432,4,25,0,-3,1,-9,1,15
1525692449457432,-4,-43,28,0,-6,-45,-2,-35
1525692449464433,17,49,-15,7,2,20,0,1
1525692449464433,-30,-35,-15,-12,-6,-1,-9,-2
1525692449480434,9,4,-7,-5,-6,-2,4,4
1525692449480434,8,-14,29,2,3,7,4,24
1525692449482434,4,34,-51,-2,-3,-82,-8,3
1525692449482434,0,-29,-15,-7,1,17,-10,-26
1525692449503435,2,61,15,-1,-3,31,8,15
1525692449503435,2,0,7,7,5,0,3,10
1525692449505435,-13,-61,-2,-1,-1,-5,-1,-13
1525692449505435,6,44,-15,-1,1,-12,2,14
1525692449517436,-3,-12,29,-1,-2,-14,-6,-5
1525692449517436,-1,-20,-12,2,1,14,0,-2
1525692449524436,-6,1,3,-6,-6,-12,-2,3
1525692449524436,4,2,16,6,-1,4,-1,2
1525692449540437,-3,7,-46,-3,4,25,-2,-10
1525692449540437,-1,-3,-9,2,-1,1,-1,2
1525692449542437,-8,-37,5,-5,-3,-12,-4,-6
1525692449542437,3,3,26,-1,-1,7,4,7
1525692449563438,1,34,11,0,-2,-12,-4,-9
1525692449563438,-3,-69,-19,-3,3,21,0,3
1525692449565438,-3,19,44,0,-2,6,-2,2
1525692449565438,2,16,-1,5,-1,-24,1,4
1525692449577439,5,-29,-16,-1,2,12,5,3
1525692449577439,-1,41,21,-1,0,11,-5,6
1525692449584439,-10,-57,-53,-8,-1,-1,-2,-12
1525692449584439,-7,15,-35,-7,-4,-1,2,4
1525692449600440,6,34,19,13,0,11,-3,-17
1525692449600440,2,27,32,2,0,-5,5,8
1525692449602441,-2,-82,21,0,1,10,-1,2
1525692449602441,-3,21,-6,-7,-2,-5,-4,-6
1525692449623442,4,-24,-5,-1,0,-18,1,7
1525692449623442,2,11,-20,-1,-5,0,-1,-3
1525692449625442,-1,32,-1,8,0,0,0,-2
1525692449625442,-5,-28,-9,-2,1,9,0,-2
1525692449637443,-3,-3,20,-2,-2,-21,-2,-2
1525692449637443,3,9,1,1,-1,23,-2,-9
1525692449644443,-1,-2,1,-6,-4,0,-2,0
1525692449644443,9,-11,13,0,0,44,3,9
1525692449661444,-15,13,-20,-6,-2,-26,1,12
1525692449661444,-2,-16,-2,0,0,-8,-1,-36
1525692449662444,-4,-8,-61,-8,-2,6,-3,8
1525692449662444,6,-3,-7,0,-2,29,-3,-7
1525692449683445,-4,20,32,0,-2,-11,-3,4
1525692449683445,1,32,20,-1,-3,-22,-2,8
1525692449685445,0,28,31,1,2,5,0,-1
1525692449685445,1,-23,-10,0,3,-2,1,-5
1525692449697446,3,-3,4,0,0,8,-1,-4
1525692449697446,-3,-18,-16,-2,-4,-8,-1,5
1525692449704446,6,20,7,-2,0,9,1,-4
1525692449704446,-3,-2,-5,4,1,-17,-3,11
1525692449720447,1,-18,-3,4,0,3,-2,-13
1525692449720447,-1,12,-18,-1,-3,-37,-4,8
1525692449722447,-8,-26,8,-5,4,58,-1,-9
1525692449722447,-2,-1,-5,-6,-5,-1,2,-2
1525692449743449,-1,-19,-5,-5,-5,9,-4,5
1525692449743449,4,8,12,4,0,-16,-3,-1
1525692449745449,5,69,29,8,1,-15,3,9
1525692449745449,-9,-73,-31,-9,-1,-17,-3,-7
1525692449757449,-4,22,-24,-6,-3,8,-4,-9
1525692449757449,0,6,-7,-4,-4,13,2,8
1525692449764450,2,-9,6,5,2,-12,1,4
1525692449764450,4,24,23,6,6,1,4,-1
1525692449780451,4,13,14,-4,-4,-6,-10,-2
1525692449780451,-13,-50,-25,-10,-2,2,-4,-5
1525692449782451,6,75,-12,4,-3,-2,0,0
1525692449782451,2,22,8,5,1,-3,0,-1
1525692449803452,3,-20,30,5,4,-6,3,0
1525692449803452,3,6,11,-2,-2,9,-1,3
1525692449805452,-8,-35,-63,-9,-3,2,-4,-12
1525692449805452,0,6,10,-5,-5,-12,-5,4
1525692449817453,1,11,10,6,1,-6,3,1
1525692449817453,1,8,27,2,2,-5,0,2
1525692449826453,-3,-18,4,-2,-2,-1,1,-4
1525692449826453,-1,-10,-11,-1,0,-4,-1,2
1525692449840454,-1,11,1,-5,0,21,0,1
1525692449840454,2,-31,-22,0,1,2,4,4
1525692449842454,-1,5,13,-3,-3,-23,-3,3
1525692449842454,-6,-9,11,-1,-3,-8,-6,-9
1525692449863455,-6,-28,-11,-2,-2,-7,2,2
1525692449863455,0,7,-15,-5,0,2,-2,-1
1525692449865456,1,16,13,10,4,12,2,8
1525692449865456,-1,6,-5,0,0,1,-3,-2
1525692449877456,0,-27,28,-2,-1,-5,6,4
1525692449877456,2,36,12,2,2,13,-6,2
1525692449886457,-6,-76,-37,-2,-4,-3,-4,-29
1525692449886457,1,24,-10,-3,0,8,0,-9
1525692449900458,-3,1,-7,0,-1,-12,-2,-6
1525692449900458,1,11,13,-1,2,18,3,10
1525692449902458,4,-4,32,-1,-2,-24,1,5
1525692449902458,-6,-39,-16,-4,-2,-8,-4,-3
1525692449923459,-2,4,-15,-3,0,29,0,-3
1525692449923459,0,11,18,3,0,-4,3,-6
1525692449925459,0,11,-5,2,3,-12,-1,3
1525692449925459,-6,-13,10,-2,-3,2,2,2
1525692449945460,0,-7,-4,-6,-3,-11,-4,0
1525692449945460,-4,-9,-51,-3,-3,4,-2,-8
1525692449947460,4,6,0,-2,-1,-3,0,4
1525692449947460,-4,16,8,1,1,-3,-1,6
1525692449960461,6,37,43,5,2,0,0,-2
1525692449960461,-2,-63,-26,4,2,0,-2,0
1525692449962461,-3,-14,0,-5,-3,4,0,-1
1525692449962461,5,44,31,-2,-4,-5,-1,0
1525692449983462,-7,-22,-38,-2,0,4,-2,-4
1525692449983462,-1,2,11,3,-1,-4,4,12
1525692449985462,2,23,16,1,0,7,-9,-23
1525692449985462,-2,-26,-4,-1,-4,-17,1,-1
1525692449997463,0,-16,-12,0,2,9,-2,-3
1525692449997463,5,6,4,1,-1,2,0,2
1525692450006464,-20,0,-30,-6,-2,6,0,4
1525692450006464,3,-7,23,1,-2,9,-1,-2
1525692450020464,3,-17,-9,-3,-2,-20,0,-1
1525692450020464,0,38,31,3,2,17,1,-3
1525692450022465,2,-56,-10,-1,-1,-3,1,6
1525692450022465,-4,19,-30,-6,-3,-3,-4,-6
1525692450043466,-4,-18,7,0,-1,-2,1,5
1525692450043466,3,3,-39,-1,1,-13,-3,-5
1525692450045466,5,38,49,3,0,9,0,-2
1525692450045466,-1,-4,-20,0,2,4,0,3
1525692450057467,0,4,13,0,0,-5,1,-3
1525692450057467,-6,-2,8,1,-2,-5,-3,-3
1525692450066467,0,8,-13,-5,-2,-9,-1,4
1525692450066467,-1,-16,-2,-3,-1,-1,0,-2
1525692450079468,0,19,-7,0,-3,3,0,7
1525692450079468,0,-13,-4,0,-1,-13,-3,-6
1525692450088468,3,2,14,3,2,14,6,6
1525692450088468,3,0,-22,2,-1,-26,-3,0
1525692450103469,-3,-13,5,0,0,13,0,-4
1525692450103469,-4,-9,4,-3,-6,12,3,-1
1525692450105469,-2,-41,7,0,1,0,-5,-1
1525692450105469,4,32,19,4,4,8,4,3
1525692450117470,1,46,-37,-3,-3,-9,-3,-4
1525692450117470,2,-52,3,-2,-2,3,1,-4
1525692450126470,-4,25,2,-5,-5,-26,-1,5
1525692450126470,-2,-12,27,1,2,24,0,-11
1525692450140471,2,-9,-41,1,-2,-7,-2,-15
1525692450140471,0,23,18,-3,0,2,-2,0
1525692450142471,-3,-1,-7,-1,2,-3,-1,-2
1525692450142471,-4,5,16,-1,-3,-6,-2,5
1525692450163473,0,5,17,0,0,-19,-1,2
1525692450163473,-3,-17,-29,-5,-3,12,-4,-2
1525692450165473,0,-6,15,1,0,5,1,1
1525692450165473,3,8,-35,-1,1,0,1,1
1525692450177473,-4,-6,30,-7,-5,13,-1,-2
1525692450177473,-3,10,-17,-3,-1,-18,-4,-2
1525692450186474,3,23,8,2,-1,3,1,3
1525692450186474,2,-46,3,-1,-2,-2,0,3
1525692450200475,-3,12,9,2,-1,-10,-3,-2
1525692450200475,-8,-22,-18,-4,2,11,1,-2
1525692450202475,5,47,23,1,-4,3,0,0
1525692450202475,-3,-23,-5,-1,2,-4,-1,0
1525692450223476,-3,0,-48,-2,-2,-5,-2,3
1525692450223476,-2,3,40,2,-2,-3,1,1
1525692450225476,-4,-6,4,1,2,2,-2,-3
1525692450225476,3,11,-19,0,1,-5,-1,1
1525692450245477,-8,-52,3,-5,-2,-2,1,0
1525692450245477,1,19,11,0,-2,2,0,0
1525692450247477,2,4,1,0,-2,-13,-1,1
1525692450247477,0,18,10,1,-1,20,1,0
1525692450260478,-1,-52,-22,0,5,16,1,0
1525692450260478,0,27,22,-1,-6,0,-2,-5
1525692450262478,0,-20,-13,-3,1,-5,-2,1
1525692450262478,-1,5,4,1,-1,-8,-4,-1
1525692450283479,1,17,1,2,0,1,3,1
1525692450283479,2,16,39,4,2,1,1,2
1525692450285480,-3,-32,0,0,-2,1,-1,1
1525692450285480,-3,50,-71,-13,-5,-1,-2,-6
1525692450305481,2,-2,73,-1,-1,-1,-3,-1
1525692450305481,1,21,2,6,-1,-30,-1,1
1525692450307481,2,1,4,-2,0,15,1,0
1525692450307481,-3,-22,8,0,1,10,1,1
1525692450320482,2,26,-18,1,-1,-11,-2,1
1525692450320482,-1,-13,-4,-1,3,-3,-1,-1
1525692450322482,1,-1,-18,-2,-3,0,2,1
1525692450322482,-2,-6,11,-2,-4,-7,-1,9
1525692450343483,-3,17,3,0,1,-1,0,-26
1525692450343483,1,-26,-22,-2,0,1,0,0
1525692450345483,-7,-11,-2,-3,-2,-2,0,2
1525692450345483,1,-7,9,-2,-1,-2,-3,1
1525692450365484,1,26,19,3,0,0,0,0
1525692450365484,-4,-12,-20,-1,1,-1,0,-2
1525692450367484,4,4,-12,-2,1,5,0,-7
1525692450367484,0,2,25,-2,-3,-5,2,1
1525692450380485,-3,-9,-6,3,2,-5,0,5
1525692450380485,-3,-4,-14,-4,-3,0,-1,-4
1525692450387485,2,-3,-5,-1,1,6,3,7
1525692450387485,-2,-5,22,4,-1,-6,-2,-7
1525692450403486,4,12,-11,-1,-2,1,0,5
1525692450403486,-5,-7,-2,-3,-1,1,-3,-3
1525692450405486,1,-2,-33,-3,-3,-4,-3,-4
1525692450405486,-2,-9,13,0,-2,-3,-1,-1
1525692450425488,1,26,28,1,0,0,-1,3
1525692450425488,8,5,0,-5,-3,-2,-1,4
1525692450427488,-7,-26,-18,-8,-1,-5,-2,-3
1525692450427488,-2,6,32,7,1,5,-2,-4
1525692450440488,-7,-12,-60,-2,-3,-1,-2,2
1525692450440488,5,56,74,4,1,2,2,1
1525692450447489,4,28,9,3,-1,-1,-2,-1
1525692450447489,-5,-43,-77,-9,-6,-2,1,0
1525692450464490,-5,-55,3,-12,-4,-2,-3,-1
1525692450464490,5,27,17,15,6,7,5,5
1525692450466490,-3,-4,69,5,3,0,0,-6
1525692450466490,0,43,-68,-3,-5,-5,-1,-1
1525692450485491,2,-63,-48,-13,-4,0,2,2
1525692450485491,-11,8,-4,19,-3,-1,-7,-8
1525692450487491,4,77,124,-13,7,-3,0,1
1525692450487491,1,-76,-20,0,0,2,1,-1
1525692450500492,1,-9,-108,9,0,-1,0,3
1525692450500492,13,16,-20,-12,9,4,5,10
1525692450507492,-16,-77,-74,8,-7,-1,-2,-5
1525692450507492,1,57,127,-17,-12,-6,-6,-7
1525692450523493,-1,-29,-81,-12,2,1,-4,-4
1525692450523493,6,17,75,29,11,5,4,5
1525692450525493,-6,-110,-117,-8,1,-6,-1,-2
1525692450525493,7,79,63,11,1,0,0,2
1525692450545494,-2,75,102,-3,-5,6,0,-3
1525692450545494,24,68,89,19,2,-1,1,6
1525692450547495,-21,-65,-73,-22,-1,-1,1,0
1525692450547495,12,22,83,17,6,-1,3,3
1525692450559495,-7,-3,75,-2,-7,-5,-7,-6
1525692450559495,-13,-81,-3,-7,-4,3,-5,-8
1525692450568496,44,127,3,28,14,6,8,16
1525692450568496,-32,-112,-49,-3,-12,-6,-8,-11
1525692450583497,-49,-65,-2,-41,-13,-3,-7,-17
1525692450583497,13,28,-68,-3,-9,-9,-1,-2
1525692450585497,22,43,-88,26,15,10,6,9
1525692450585497,-3,28,7,-15,-2,-10,-2,-3
1525692450605498,7,45,93,-23,-13,-4,-3,1
1525692450605498,-3,67,-66,20,8,6,3,3
1525692450607498,-17,-24,-53,-47,-26,-7,-11,-18
1525692450607498,12,52,-10,17,12,13,8,13
1525692450619499,0,-81,15,31,27,6,8,6
1525692450619499,-19,-91,-60,-59,-26,2,-7,-10
1525692450628499,7,27,35,43,18,-12,6,8
1525692450628499,31,45,-24,18,6,-9,0,5
1525692450643500,-9,127,86,-27,-26,-7,-11,-6
1525692450643500,-22,-128,-128,-11,4,-6,0,5
1525692450645500,-13,18,-18,-23,-14,-1,-7,-18
1525692450645500,76,-36,76,-9,10,12,10,14
1525692450665501,9,89,-76,24,-8,-13,-6,-2
1525692450665501,-68,32,-86,-40,-1,-4,-6,-12
1525692450667501,49,66,126,25,1,4,11,18
1525692450667501,-76,22,11,-13,-28,-15,-26,-46
1525692450679502,57,49,19,48,33,17,24,35
1525692450679502,-35,50,-23,-20,-16,-8,-8,-12
1525692450688503,34,-52,-9,-43,-9,-1,-2,11
1525692450688503,-74,-128,-128,-18,7,-1,-1,-10
1525692450703503,32,-19,-22,48,45,26,22,28
1525692450703503,-12,120,127,-30,-52,-26,-25,-29
1525692450705504,-24,-80,-105,-51,-1,-2,0,4
1525692450705504,34,127,127,27,21,11,10,18
1525692450725505,-18,-45,-1,-52,-36,-20,-19,-24
1525692450725505,5,-27,-110,16,18,8,5,8
1525692450727505,-60,-40,7,11,-17,-7,-10,-24
1525692450727505,71,55,74,24,14,7,10,19
1525692450739506,-70,-124,-124,-41,-11,-9,-16,-30
1525692450739506,-4,110,108,1,9,8,8,4
1525692450748506,53,30,-15,18,18,10,10,22
1525692450748506,-59,13,-8,-32,-19,-2,-6,-9
1525692450764507,-13,27,127,43,19,5,8,25
1525692450764507,64,-123,-76,23,16,6,14,2
1525692450766507,-23,104,-10,10,-4,-2,-16,-16
1525692450766507,-6,-97,-128,22,18,8,7,9
1525692450785508,-16,-12,69,-16,-20,-9,-8,-9
1525692450785508,8,-40,9,-12,13,9,10,20
1525692450788508,-86,-67,6,-50,-37,-27,-25,-43
1525692450788508,56,-34,33,24,6,4,10,22
1525692450799509,1,96,-77,-41,-12,-6,-5,-13
1525692450799509,7,-56,-17,3,-4,-4,0,7
1525692450808510,15,-52,80,87,44,20,21,34
1525692450808510,-3,11,-97,-113,-43,-22,-22,-47
1525692450823510,46,-57,9,-35,9,13,19,28
1525692450823510,26,36,63,72,32,5,-2,1
1525692450825510,27,127,70,4,-3,4,5,6
1525692450825510,-43,-29,127,16,-12,-8,-5,-10
1525692450845512,33,13,38,54,32,16,13,22
1525692450845512,-20,127,29,-64,-40,-18,-17,-21
1525692450847512,-89,-39,16,13,0,2,2,-3
1525692450847512,-13,-93,-59,33,47,21,19,20
1525692450859512,-31,73,24,-11,-43,-24,-11,-18
1525692450859512,-8,31,107,15,-2,-2,-3,2
1525692450868513,21,3,43,2,5,2,0,0
1525692450868513,7,-9,-106,-24,-11,-5,4,19
1525692450883514,-26,67,127,20,-11,-5,-12,-18
1525692450883514,82,76,47,41,21,14,15,19
1525692450885514,-49,-39,-98,-101,-41,-18,-14,-26
1525692450885514,20,94,75,75,25,8,0,3
1525692450905515,17,-73,94,10,18,4,4,13
1525692450905515,-62,-86,-24,-43,-19,-6,-13,-25
1525692450907515,33,26,-11,10,-8,-4,-4,-1
1525692450907515,-14,4,-53,-11,-6,-5,-7,-13
1525692450919516,-27,71,-69,16,17,1,-3,-4
1525692450919516,6,-125,-72,-24,-3,3,9,14
1525692450928516,34,7,127,38,15,10,2,8
1525692450928516,-82,-20,73,-13,-15,-8,-12,-16
1525692450942517,45,53,-87,-30,0,4,6,-1
1525692450942517,-10,-65,-6,7,-4,-7,-4,-5
1525692450949518,18,96,37,-14,-18,-14,-13,-17
1525692450949518,11,41,2,5,5,3,9,13
1525692450965518,1,-36,-61,9,-5,-6,-8,-16
1525692450965518,-8,-11,127,28,13,6,5,5
1525692450967519,-14,-70,5,-21,3,1,1,3
1525692450967519,0,127,85,-72,-42,-21,-21,-28
1525692450979519,-8,-74,-128,-10,6,3,3,0
1525692450979519,-33,-28,61,31,-2,-7,-6,0
1525692450988520,24,42,99,12,10,9,8,13
1525692450988520,-41,-101,-105,1,0,-5,-3,-5
1525692451003521,2,-63,10,3,-4,2,-1,-5
1525692451003521,19,79,10,-14,3,5,0,1
1525692451005521,1,29,82,-1,6,6,10,11
1525692451005521,32,-74,43,34,19,6,6,17
1525692451025522,-90,86,25,-12,-14,-9,-8,-10
1525692451025522,44,-48,-11,3,6,5,5,9
1525692451027522,6,-65,-36,13,4,1,1,1
1525692451027522,-15,-44,-32,-14,-21,-9,-5,6
1525692451039523,-11,58,127,31,11,3,2,-23
1525692451039523,-16,-73,-13,-3,0,-3,-3,-29
1525692451048523,-4,61,21,4,2,3,5,-6
1525692451048523,15,-25,3,-7,-1,-4,-9,13
1525692451063524,35,-54,-110,3,0,-6,-7,15
1525692451063524,-27,40,-57,-18,-7,-7,12,5
1525692451065524,-39,-5,-2,2,-6,3,-8,-18
1525692451065524,73,55,35,15,8,27,-1,19
1525692451085525,1,-1,-22,0,7,-14,46,-36
1525692451085525,1,-26,-6,12,9,17,-16,44
1525692451087525,-25,-9,-116,-9,-17,-12,-17,-3
1525692451087525,-11,79,19,-2,1,-31,10,-11
1525692451099526,0,-43,-35,1,-2,45,-23,-5
1525692451099526,10,52,61,1,-4,-50,28,37
1525692451108527,16,-48,-73,6,3,8,-7,-28
1525692451108527,-18,40,-12,-3,-7,10,-2,21
1525692451122527,14,-6,74,4,0,-30,-5,-12
1525692451122527,-22,23,-97,-15,-2,20,-4,-13
1525692451129528,5,-5,21,3,2,-2,-1,21
1525692451129528,-10,14,69,9,3,28,7,8
1525692451145529,-1,-48,-97,-16,-6,-37,-48,-4
1525692451145529,5,34,42,9,-1,-4,25,-28
1525692451147529,-20,44,53,-6,-15,-35,-17,-6
1525692451147529,4,-3,-21,2,7,37,23,-17
1525692451159530,9,13,60,6,8,-14,9,43
1525692451159530,-1,-4,12,5,6,32,-4,-3
1525692451168530,11,-10,-64,5,-4,-14,5,-2
1525692451168530,-6,55,56,3,8,14,-6,1
1525692451182531,-6,-42,0,-10,-11,-17,-22,1
1525692451182531,-6,1,22,-2,-8,-23,1,-25
1525692451189531,5,-9,36,3,4,75,15,-23
1525692451189531,1,-12,-30,-4,-10,-68,2,57
1525692451205532,5,8,25,13,6,-13,-21,35
1525692451205532,-9,-14,-22,-13,-9,-28,20,-28
1525692451207532,0,-2,12,4,10,-2,-11,7
1525692451207532,-2,-21,-36,-2,1,72,-22,-5
1525692451228534,9,10,22,3,-2,-27,3,-17
1525692451228534,-14,-17,-5,-7,-7,28,-25,-15
1525692451230534,7,1,2,4,4,-20,36,23
1525692451230534,-7,-15,-16,1,1,-26,1,-34
1525692451242534,4,8,3,0,-9,19,7,-11
1525692451242534,9,-37,6,6,3,28,-4,60
1525692451249535,-14,-48,-8,-1,2,14,12,-5
1525692451249535,-8,28,-7,-11,-11,-71,-35,-96
1525692451265536,8,2,35,6,-3,58,17,50
1525692451265536,0,-2,-9,2,1,-13,-18,12
1525692451267536,5,-4,-50,-8,5,-13,45,32
1525692451267536,-7,-86,34,6,-1,33,-14,7
1525692451289537,-5,37,8,-3,-7,-62,9,-65
1525692451289537,-4,11,20,-8,-8,20,13,-30
1525692451291537,4,9,5,-1,-9,-3,-57,13
1525692451291537,-3,17,-26,-1,2,-26,49,-42
1525692451302538,11,-3,-10,-3,7,28,16,31
1525692451302538,-18,-2,1,2,-5,2,-59,78
1525692451317539,-2,12,23,6,4,-18,-15,-61
1525692451317539,-5,-17,-25,-2,-9,-47,11,-52
1525692451325539,-8,-5,18,3,1,32,-30,12
1525692451325539,2,12,-16,-6,1,-54,12,-20
1525692451327539,5,10,5,-1,1,34,13,35
1525692451327539,2,-8,6,1,4,-15,26,24
1525692451348540,-5,-10,-26,-5,-7,5,-13,-18
1525692451348540,4,55,74,5,-1,1,-16,6
1525692451350541,4,54,44,2,1,-31,24,-12
1525692451350541,-14,-43,-68,-20,-1,35,-33,-5
1525692451362541,-5,-31,25,1,2,16,5,-2
1525692451362541,11,18,-47,1,1,3,13,3
1525692451369542,-6,1,38,5,-3,-18,-9,-45
1525692451369542,9,9,7,6,3,33,11,-3
1525692451385543,-3,13,-2,0,5,-12,21,48
1525692451385543,3,-3,3,3,-5,-22,2,-14
1525692451387543,-5,-17,-21,-5,-2,72,-53,-39
1525692451387543,10,10,2,3,-2,-25,-18,-49
1525692451408544,8,-5,-11,4,1,-44,-21,16
1525692451408544,-14,2,0,-2,1,10,5,-11
1525692451410544,-10,-19,-21,-4,-1,-14,7,-19
1525692451410544,4,1,3,-2,1,13,-11,-5
1525692451422545,-3,25,14,-3,-1,20,23,24
1525692451422545,4,-7,-13,2,4,-5,8,-6
1525692451429545,1,4,1,1,1,8,-12,26
1525692451429545,4,15,-13,4,-2,-46,8,67
1525692451445546,4,3,32,-1,-1,68,50,-32
1525692451445546,6,29,36,3,-1,-50,-46,17
1525692451447546,-26,-44,-78,-12,0,-28,-34,-36
1525692451447546,7,29,37,5,0,-7,12,-11
1525692451468547,5,-1,-41,3,4,3,14,30
1525692451468547,-5,-12,31,1,-3,6,17,-59
1525692451470547,6,19,22,-1,-2,-27,-5,-30
1525692451470547,3,-29,-19,-4,-3,20,11,36
1525692451482548,-13,-6,10,-4,0,-17,-24,-42
1525692451482548,-6,-75,-47,-7,-1,47,10,27
1525692451489548,7,18,15,5,1,-23,2,-49
1525692451489548,-8,3,-4,-5,-4,-2,-1,18
1525692451505549,-4,7,3,0,-3,22,0,-12
1525692451505549,7,6,-12,-3,-4,-34,5,9
1525692451507549,0,-17,-10,-1,-1,75,3,64
1525692451507549,6,32,41,9,12,20,-10,-2
1525692451528551,-5,-40,-6,-3,-4,-20,-4,-41
1525692451528551,0,21,-20,-4,0,20,-29,-15
1525692451530551,10,45,28,6,1,-23,37,59
1525692451530551,-16,-70,83,3,-2,-9,-3,-47
1525692451543552,2,-54,-107,-19,-4,9,6,18
1525692451543552,-9,31,89,-3,-5,-32,-47,27
1525692451551552,18,16,38,7,3,16,56,63
1525692451551552,-6,12,5,1,4,25,-33,-27
1525692451565553,7,46,58,4,-6,-12,6,0
1525692451565553,-7,15,-67,-4,0,5,13,18
1525692451567553,-10,-38,17,-9,-8,-22,1,-64
1525692451567553,12,26,-42,4,0,5,6,34
1525692451588554,-9,0,17,2,0,-8,-18,-13
1525692451588554,4,31,8,-3,5,3,12,-15
1525692451590554,9,-12,-13,5,2,36,-5,54
1525692451590554,-22,-19,-45,-7,-7,-20,0,-24
1525692451602555,5,28,-3,0,0,-48,-9,4
1525692451602555,6,-6,3,-4,0,77,33,30
1525692451611555,-5,-44,17,2,1,-20,-14,-21
1525692451611555,-2,-17,-12,-4,-3,-22,-7,-5
1525692451625556,4,61,8,1,0,8,13,25
1525692451625556,-13,-58,-14,1,0,-25,6,-30
1525692451627556,-2,49,-4,-4,-2,-13,-9,6
1525692451627556,8,16,10,-4,-4,15,-11,63
1525692451648558,-2,-5,51,5,1,-13,-14,-24
1525692451648558,-8,-103,-98,-9,0,-1,6,-2
1525692451650558,1,44,35,2,-2,-9,-6,0
1525692451650558,5,-15,-46,3,3,-7,8,17
1525692451662558,3,45,-9,-13,-6,3,-3,26
1525692451662558,-3,-16,24,0,-2,15,-6,-31
1525692451671559,-5,-1,0,0,-2,-5,-7,1
1525692451671559,-4,-21,-5,-3,3,5,11,3
1525692451685560,0,-24,-14,5,0,-3,0,19
1525692451685560,13,17,-15,1,-2,8,11,28
1525692451687560,-9,-16,15,-2,1,1,-18,-28
1525692451687560,6,39,-8,3,-1,-2,7,-9
1525692451708561,-11,-38,-36,-7,-3,5,-8,-14
1525692451708561,3,20,9,-1,-2,-15,4,-1
1525692451710561,-4,-14,-1,2,2,8,3,16
1525692451710561,-2,12,21,-2,-3,0,-2,17
1525692451721562,-3,-9,0,5,0,-5,6,-15
1525692451721562,5,36,24,4,2,-1,-6,-11
1525692451731562,-5,-72,-14,-5,-1,-11,5,10
1525692451731562,-4,56,-39,-5,-3,4,-37,-8
1525692451745563,-3,-60,51,3,0,2,1,-8
1525692451745563,-3,17,-39,-1,1,-8,5,-8
1525692451747563,2,38,23,3,-2,-7,-4,7
1525692451747563,14,67,49,2,0,1,4,16
1525692451768564,-6,-89,-26,0,0,-21,9,-10
1525692451768564,-11,-23,-2,-4,-1,16,-13,-5
1525692451770565,3,23,-7,-4,-1,-11,0,4
1525692451770565,-4,-11,16,1,2,3,3,-14
1525692451781565,11,49,15,5,0,6,0,9
1525692451781565,-4,-12,4,-3,-4,-35,3,-28
1525692451791566,1,-13,-34,0,2,23,0,8
1525692451791566,-3,-14,17,-1,-2,-3,9,4
1525692451805567,0,11,-6,-3,-1,14,1,29
1525692451805567,-3,7,-5,-1,-1,-24,-5,-30
1525692451807567,4,9,12,5,1,-10,-4,-2
1525692451807567,-6,-44,-24,-4,1,13,5,9
1525692451828568,-2,-30,-44,-3,-1,6,-13,-4
1525692451828568,2,43,39,2,-2,2,1,-14
1525692451830568,-3,14,-32,-4,-1,-14,-1,3
1525692451830568,1,-36,23,0,0,2,6,-2
1525692451842569,2,15,-2,-3,-1,0,-6,-6
1525692451842569,3,-4,7,1,0,4,2,10
1525692451851569,-1,8,9,-3,-6,-5,0,0
1525692451851569,-3,-15,14,1,1,-1,2,5
1525692451865570,-3,8,-53,-1,0,5,12,-11
1525692451865570,0,-3,9,1,0,-14,-13,6
1525692451867570,-1,-20,-13,-3,-1,14,5,1
1525692451867570,2,13,8,0,-3,-9,-5,5
1525692451888571,2,22,25,4,3,8,3,-9
1525692451888571,-3,-13,-4,1,2,15,4,1
1525692451890571,1,-8,-16,-4,-4,-12,-4,14
1525692451890571,-3,3,-2,-5,-3,1,0,-47
1525692451902572,0,4,7,-2,0,-5,-6,-3
1525692451902572,2,-6,-20,-1,-2,0,0,5
1525692451911573,2,-1,21,2,-1,1,-4,-3
1525692451911573,4,-3,-19,-1,-1,-7,3,27
1525692451925573,0,28,35,0,2,1,-4,-14
1525692451925573,0,1,6,-1,-1,6,4,4
1525692451927574,-10,-89,-67,-5,-4,-8,-3,-16
1525692451927574,-6,48,3,-8,-4,-3,0,6
1525692451948575,3,4,5,6,-1,-2,0,11
1525692451948575,2,13,33,3,2,5,2,5
1525692451950575,4,20,14,0,2,-2,2,3
1525692451950575,-2,-18,-21,0,-4,-17,-5,7
1525692451961575,-4,-7,9,-5,-4,20,-4,-8
1525692451961575,1,2,-4,0,-2,-2,2,8
1525692451971576,-1,5,-4,-1,-3,-26,-2,-1
1525692451971576,-1,-13,-3,0,4,26,3,-2
1525692451985577,2,23,5,3,2,-4,-28,-5
1525692451985577,-3,-16,-8,1,-3,-18,-1,-2
1525692451987577,1,13,-2,-5,-1,19,-1,-5
1525692451987577,2,-12,-2,-1,-2,-12,-2,4
1525692452008578,2,-1,0,-1,-3,1,5,1
1525692452008578,-3,-8,-19,-1,2,7,-1,-9
1525692452010578,-1,6,9,0,0,-9,-3,2
1525692452010578,0,-1,16,-10,-4,2,2,-4
1525692452022579,-3,-1,-4,3,2,0,3,-2
1525692452022579,-3,11,24,-3,-2,-2,-4,-1
1525692452031579,5,3,-40,2,-1,-3,6,3
1525692452031579,-1,-22,3,4,-1,5,5,1
1525692452045580,-6,21,-19,-10,-5,-7,-1,-3
1525692452045580,0,-3,8,-4,-1,2,0,15
1525692452047580,-1,11,21,7,6,13,-2,-25
1525692452047580,1,15,-25,3,2,4,2,9
1525692452068582,-7,-29,-7,-2,-3,-9,-2,-42
1525692452068582,-4,-4,-5,-2,-3,-15,-2,-7
1525692452070582,3,13,25,-1,1,7,2,14
1525692452070582,3,10,8,2,-2,-5,-3,-1
1525692452081582,0,-20,-19,1,1,-2,5,0
1525692452081582,-7,3,10,-1,0,1,-3,9
1525692452091583,-4,-20,-4,-1,-5,-8,-1,-5
1525692452091583,-2,3,-7,-5,-1,-4,-2,-2
1525692452105584,0,7,13,2,2,3,-1,7
1525692452105584,2,5,-18,0,-2,0,-1,-8
1525692452107584,2,20,42,-2,-2,-1,0,10
1525692452107584,-3,-4,-36,0,0,2,-1,-7
1525692452128585,0,5,3,-3,-3,-5,0,9
1525692452128585,0,6,7,0,2,9,-1,-1
1525692452130585,-1,2,10,-2,-4,-34,0,1
1525692452130585,-5,-21,11,-2,0,29,-1,-3
1525692452150586,-2,8,-32,-8,-1,-9,6,7
1525692452150586,2,-10,-3,9,0,-12,-10,-10
1525692452152586,-5,4,-8,-3,-1,7,-1,-2
1525692452152586,1,-1,13,2,0,-18,9,0
1525692452165587,-1,-2,8,-1,-1,6,-22,10
1525692452165587,-1,4,-4,0,0,12,3,-6
1525692452167587,-9,-34,-28,-12,-5,-8,-2,9
1525692452167587,4,-14,16,5,1,-7,-1,5
1525692452188588,-3,25,24,-2,-1,3,3,-19
1525692452188588,0,-24,-11,-1,0,-2,-1,5
1525692452190589,0,2,-42,-6,-1,6,-4,-4
1525692452190589,1,6,8,-4,-1,-3,-1,6
1525692452210590,1,12,11,10,2,-2,3,6
1525692452210590,0,-9,16,-2,-1,5,-2,-3
1525692452212590,4,-2,3,-1,2,5,3,1
1525692452212590,-6,4,-10,-4,-5,-4,-6,-7
1525692452224590,5,-5,13,1,1,0,5,0
1525692452224590,0,14,-8,2,4,6,1,1
1525692452233591,5,13,10,5,0,-8,-3,2
1525692452233591,-2,-42,-9,-3,-3,13,2,-8
1525692452248592,-7,2,31,-7,-2,0,-11,8
1525692452248592,-2,-31,-71,-8,-2,10,2,-2
1525692452250592,0,13,13,4,1,-1,3,2
1525692452250592,2,11,6,1,0,-5,-3,-5
1525692452270593,2,-3,-7,1,0,-5,6,4
1525692452270593,-1,7,-3,-1,-2,-2,0,6
1525692452272593,-4,-12,10,-1,0,3,-4,-39
1525692452272593,2,26,9,3,-3,-10,-2,8
1525692452285594,1,-34,-14,2,1,-14,1,7
1525692452285594,2,26,18,1,1,16,-1,-6
1525692452292594,-8,-39,-19,-5,-3,-1,0,1
1525692452292594,-5,16,-28,-4,0,-1,-1,7
1525692452308595,-2,1,0,-1,-3,-5,-1,-11
1525692452308595,1,6,20,1,-2,-11,-2,5
1525692452310595,3,-4,-17,3,0,4,3,11
1525692452310595,-5,6,13,0,1,3,2,-9
1525692452330597,-2,24,-18,-2,0,5,0,5
1525692452330597,3,-34,7,3,-3,-4,1,-2
1525692452332597,-7,24,50,-3,-4,3,-5,-2
1525692452332597,-4,-29,-83,-10,-5,-11,-6,-5
1525692452345597,1,6,6,4,4,4,5,-1
1525692452345597,-3,15,16,6,-1,-2,3,-2
1525692452351598,0,5,-2,-2,-2,0,-5,1
1525692452351598,3,-10,16,5,1,-3,-1,3
1525692452368599,0,7,-1,-4,0,1,13,1
1525692452368599,-3,2,-4,-5,-2,-4,-25,-3
1525692452370599,2,-7,-6,0,0,0,3,9
1525692452370599,-2,16,26,2,1,4,0,-5
1525692452390600,1,-24,-20,-1,-3,-1,-3,1
1525692452390600,-5,13,8,-3,-2,-8,4,0
1525692452392600,2,-17,7,-1,-1,2,3,1
1525692452392600,1,8,-29,-3,-1,-15,-5,-2
1525692452405601,-3,9,16,4,-1,14,-1,0
1525692452405601,-1,-20,-9,-2,0,-3,0,-3
1525692452411601,1,19,5,1,1,2,-2,2
1525692452411601,-1,-1,9,-1,-2,-2,4,0
1525692452428602,1,-3,-3,3,-3,-4,-3,1
1525692452428602,-3,-14,-17,-6,1,1,2,6
1525692452430602,-2,11,5,3,2,0,-1,-9
1525692452430602,3,4,2,0,-1,-2,-3,2
1525692452450603,-1,-31,-2,-2,-1,-6,-3,-8
1525692452450603,-1,23,13,7,2,12,1,-3
1525692452452604,1,15,-12,-5,-2,-6,2,12
1525692452452604,-1,-5,16,-4,-3,0,-4,-16
1525692452465604,2,11,-2,-3,0,2,-2,1
1525692452465604,1,-9,20,0,0,-8,6,-3
1525692452471605,1,-22,-74,-6,-3,-6,-1,1
1525692452471605,-4,20,22,1,-2,-9,1,3
1525692452488606,1,-2,4,2,-1,21,0,-1
1525692452488606,0,1,2,-1,-1,-6,-2,-4
1525692452490606,1,13,17,-1,-1,4,-1,0
1525692452490606,-1,-19,-7,3,4,-1,-2,0
1525692452510607,-4,-19,-12,-4,0,-11,-2,1
1525692452510607,-1,1,3,-4,-5,0,-2,-1
1525692452512607,2,7,24,0,-1,-11,-2,-5
1525692452512607,-4,-1,-30,4,2,12,-2,3
1525692452525608,1,1,11,-4,1,-3,-2,0
1525692452525608,0,4,-11,0,3,1,3,-1
1525692452531608,1,-7,4,-1,-1,0,1,1
1525692452531608,2,-3,20,0,-3,0,0,4
1525692452548609,-3,-4,-10,-4,-3,-5,-1,-13
1525692452548609,-1,0,-15,-7,-4,-2,-4,-5
1525692452550609,-5,8,10,0,-1,-3,-2,-1
1525692452550609,2,-15,9,5,1,5,2,5
1525692452570610,-1,28,-6,0,-1,0,-2,-4
1525692452570610,-3,-21,-19,-3,1,-1,5,9
1525692452572610,-4,1,6,1,2,4,3,-10
1525692452572610,-1,13,-4,-4,-3,3,-22,-4
1525692452585611,-1,-2,4,-3,-4,-8,-2,7
1525692452585611,3,3,1,3,0,-5,2,2
1525692452591611,-1,-1,-8,1,2,3,4,2
1525692452591611,1,-4,3,-2,-2,1,4,-2
1525692452608612,0,10,11,-3,-2,-4,-2,-2
1525692452608612,0,-23,-8,-2,3,4,-3,-3
1525692452610613,0,-7,-31,-2,-4,2,-1,1
1525692452610613,-1,-2,16,-1,-2,-13,3,-6
1525692452630614,1,1,-5,-2,3,20,-7,1
1525692452630614,3,19,17,-1,-4,-1,9,1
1525692452632614,-7,-8,6,0,0,-2,-4,2
1525692452632614,-1,3,-2,2,1,1,2,-1
1525692452644615,-3,7,7,0,-1,-6,1,-5
1525692452644615,2,-2,7,-2,-5,-2,-5,2
1525692452653615,0,-14,-20,-2,-1,0,-4,-3
1525692452653615,-3,6,-11,-3,-2,0,3,3
1525692452668616,1,-14,2,1,0,-3,1,-1
1525692452668616,0,27,-2,2,1,3,-2,-1
1525692452670616,0,-24,21,3,1,-1,-2,3
1525692452670616,-1,25,17,-3,0,1,0,-3
1525692452692617,1,-9,-16,2,-3,-3,1,4
1525692452692617,-5,-19,-18,-12,-3,-3,-4,-4
1525692452694617,4,13,7,1,-5,2,2,2
1525692452694617,0,-10,0,0,4,1,0,-1
1525692452704618,-1,-2,-4,5,1,0,-2,0
1525692452704618,0,11,7,0,0,-3,1,7
1525692452713618,-2,-3,-5,-2,1,-1,-2,-10
1525692452713618,-1,-11,-5,2,1,4,2,3
1525692452728619,-3,8,12,-3,-3,-6,0,3
1525692452728619,-2,-7,-9,-2,-3,-4,-6,-7
1525692452730619,1,0,1,-2,0,2,0,7
1525692452730619,-2,-9,-3,-1,-1,-1,0,-2
1525692452750621,-4,0,-6,-2,-1,-1,1,-4
1525692452750621,0,1,4,8,2,4,-1,4
1525692452752621,2,-2,-1,-5,1,1,-4,-3
1525692452752621,4,14,9,0,-2,-1,1,-3
1525692452764621,1,-27,-11,-6,-4,-3,-2,2
1525692452764621,-2,4,-13,10,-1,-2,-2,-4
1525692452773622,-3,-1,6,-9,-1,1,1,0
1525692452773622,1,2,-15,-7,-2,-2,-2,-2
1525692452788623,-2,4,-1,-3,1,1,1,1
1525692452788623,-4,-3,4,-2,-1,0,-2,-4
1525692452790623,0,1,-4,2,1,-2,-1,-2
1525692452790623,-3,-8,2,1,1,0,-1,2
1525692452810624,1,3,0,-1,-2,0,-1,0
1525692452810624,1,-9,-9,-5,-2,2,1,-3
1525692452812624,0,5,1,-1,-1,-6,-2,1
1525692452812624,-2,-3,9,8,-1,-3,0,-1
1525692452824625,3,-1,-3,5,-1,-1,-2,-1
1525692452824625,0,5,-5,-5,-4,-1,-2,-2
1525692452833625,-3,-2,11,4,0,1,0,0
1525692452833625,3,-4,-2,-3,3,14,1,0
1525692452848626,2,1,-2,3,2,-1,1,-3
1525692452848626,-1,-2,2,-1,1,0,-1,0
1525692452850626,-1,4,-5,-2,-5,-5,-1,-2
1525692452850626,-1,-10,-5,3,-2,-6,-3,-3
1525692452870627,-1,-1,-1,-1,-3,-1,-1,0
1525692452870627,-2,-4,-1,-9,-2,-4,-1,-2
1525692452872628,-2,-4,-5,1,1,3,2,1
1525692452872628,1,-6,2,-6,0,-2,-1,2
1525692452884628,1,23,-1,-1,1,1,2,0
1525692452884628,1,-29,14,2,-1,-3,3,-1
1525692452893629,-2,-9,24,0,-3,2,-6,-4
1525692452893629,-6,-31,-91,-12,-7,-2,-1,1
1525692452908630,-3,13,22,-5,-2,-4,-1,-2
1525692452908630,5,11,-3,4,1,3,4,1
1525692452910630,1,15,16,10,4,-2,1,0
1525692452910630,-1,-7,17,2,0,-18,0,-3
1525692452930631,-1,-1,-7,-1,-1,18,1,-6
1525692452930631,-2,8,1,-4,0,10,-3,-5
1525692452932631,0,-14,-8,-2,-1,3,0,0
1525692452932631,0,9,12,3,-2,-8,-2,0
1525692452944632,-2,-9,-14,-4,0,-11,-2,0
1525692452944632,3,5,14,1,-3,-1,-2,1
1525692452953632,-1,-3,-13,-1,-1,-2,-1,0
1525692452953632,0,7,7,-2,3,3,2,-2
1525692452968633,4,2,8,7,-1,-3,1,4
1525692452968633,-4,-10,-10,-3,0,-2,-1,-1
1525692452970633,0,10,-11,-3,-2,-5,-1,-1
1525692452970633,2,8,14,-2,-1,12,-3,1
1525692452990634,-1,-11,3,-1,-2,-1,0,-3
1525692452990634,-2,4,-6,-1,1,-4,0,1
1525692452992634,-2,1,-6,-2,-2,-4,0,-3
1525692452992634,-4,-18,9,3,-4,7,-1,1
1525692453004635,0,17,-9,-6,-2,-10,0,0
1525692453004635,-1,2,4,6,0,3,-12,-5
1525692453013636,2,-30,8,-1,0,1,3,2
1525692453013636,-1,18,-3,-5,-3,-1,-2,4
1525692453028636,-1,-15,-22,-1,-3,-1,2,-9
1525692453028636,-1,8,11,-4,-3,-7,3,1
1525692453030637,2,-1,-10,-1,0,3,-1,-2
1525692453030637,-1,11,19,3,2,-2,-2,4
1525692453050638,-1,-2,22,5,-1,-3,-2,1
1525692453050638,-1,2,-8,-5,2,0,0,-2
1525692453052638,0,3,-1,2,-1,1,-2,0
1525692453052638,0,-10,-8,-4,-2,-1,2,-4
1525692453073639,-2,6,-6,-4,1,2,-2,4
1525692453073639,-1,-7,19,-4,0,-2,0,-3
1525692453075639,-3,5,-9,1,1,2,1,0
1525692453075639,-1,-4,-27,-3,-2,-4,-1,-4
1525692453088640,1,-8,6,2,-1,2,-4,0
1525692453088640,-1,2,-4,2,1,-4,0,5
1525692453090640,-1,3,1,-8,0,2,1,-2
1525692453090640,1,4,10,2,-1,-1,-2,-5
1525692453110641,0,-7,-2,-3,0,3,0,6
1525692453110641,2,-1,-6,-1,-4,-6,-2,-9
1525692453112641,0,5,-1,-1,1,-2,-1,0
1525692453112641,0,-1,8,3,0,1,0,0
1525692453133642,-1,0,-5,-4,0,0,0,1
1525692453133642,-2,-8,-5,-6,0,-1,1,-1
1525692453135643,0,-6,-15,7,4,1,0,-2
1525692453135643,1,47,28,-2,-2,0,-1,-2
1525692453148643,-2,-62,51,-2,-5,-5,2,-2
1525692453148643,-6,-11,-98,-7,-2,-1,-12,-3
1525692453150643,-2,5,18,-4,-3,-4,-1,-2
1525692453150643,1,-5,2,1,0,1,2,0
1525692453170645,0,30,-2,1,1,0,2,-1
1525692453170645,-4,-9,23,3,-3,-2,1,1
1525692453172645,-3,2,-8,-8,-4,0,0,-1
1525692453172645,0,0,-4,0,-1,0,-1,-2
1525692453193646,-1,2,-3,6,5,1,-3,-1
1525692453193646,2,2,10,0,3,4,1,2
1525692453195646,-1,7,-12,-3,-4,-3,-3,-2
1525692453195646,-1,-12,11,-3,-3,-2,-1,-1
1525692453207647,-1,7,-13,6,1,1,-1,-2
1525692453207647,1,3,3,-1,-2,-7,2,1
1525692453214647,-1,-2,7,-2,0,7,1,-2
1525692453214647,-2,-8,-5,-5,-1,-1,0,0
1525692453230648,0,-6,-15,-1,-3,-3,-2,0
1525692453230648,-1,7,8,0,0,-3,1,-1
1525692453232648,-1,-1,10,1,-2,-5,1,-2
1525692453232648,1,-7,-6,-2,0,-1,-2,1
1525692453253649,-1,4,-9,-3,0,-1,-1,0
1525692453253649,0,1,13,2,-1,2,2,-5
1525692453255649,3,4,3,1,-1,-1,-1,12
1525692453255649,-3,-38,-23,1,1,2,0,1
1525692453267650,4,40,26,1,1,0,1,1
1525692453267650,-1,-39,7,-1,1,-4,3,-1
1525692453274651,-5,32,-42,-7,-4,3,-12,-7
1525692453274651,1,8,15,7,1,-4,0,-1
1525692453290651,0,-13,-10,-4,-1,-1,0,1
1525692453290651,4,17,16,-4,-4,1,1,0
1525692453292652,-1,-9,5,1,-1,-5,3,0
1525692453292652,-2,0,-3,4,6,2,0,0
1525692453313653,-3,2,-8,-1,-3,0,0,-2
1525692453313653,-1,8,-2,0,-3,2,-1,0
1525692453315653,-2,-15,2,2,3,-1,1,-2
1525692453315653,0,7,-5,-6,-4,-1,-2,-2
1525692453327654,-4,-7,1,-1,1,4,1,4
1525692453327654,-2,1,-3,-3,0,2,-3,2
1525692453334654,-2,-10,3,4,-1,-1,0,-12
1525692453334654,0,-2,5,-1,0,-3,1,0
1525692453350655,-2,-7,-11,-2,-2,-1,-2,0
1525692453350655,-1,9,-1,-2,-2,1,-1,0
1525692453352655,-1,-12,3,-2,-1,0,0,1
1525692453352655,-3,7,1,1,-1,1,-1,-1
1525692453373656,0,1,-4,-1,-2,-2,-2,-4
1525692453373656,-2,-31,-9,-4,-1,-2,-2,3
1525692453375656,-1,-10,2,-1,-1,-3,0,1
1525692453375656,-1,5,3,3,-1,1,-1,-3
1525692453387657,-2,-1,1,-3,-2,-1,-2,-1
1525692453387657,2,21,3,4,4,-5,2,-1
1525692453394657,-3,-10,2,-5,-1,5,2,-3
1525692453394657,-2,12,-1,-10,-3,-2,4,7
1525692453410658,3,4,-2,3,0,-3,-12,-1
1525692453410658,-4,-1,9,4,-2,-1,2,-2
1525692453412658,1,6,1,7,3,-3,0,5
1525692453412658,-6,-1,-31,-5,-5,0,-2,-11
1525692453433660,-2,-6,10,-4,-3,-1,1,-2
1525692453433660,-3,4,-5,-3,-2,-1,-2,-1
1525692453435660,1,-5,8,-1,0,-2,-1,1
1525692453435660,1,-6,8,1,-1,4,0,0
1525692453447660,-1,-2,-8,-1,0,-4,1,0
1525692453447660,-2,-3,-4,1,1,-4,-2,-3
1525692453454661,-1,9,2,0,1,6,1,-1
1525692453454661,2,-9,0,-3,-3,-2,-5,-3
1525692453470662,-3,1,-13,-3,0,0,3,-2
1525692453470662,1,8,13,2,-4,-2,-1,0
1525692453472662,-1,-2,-4,-3,0,-5,-3,-1
1525692453472662,2,0,0,3,0,-2,-1,1
1525692453493663,1,-6,0,0,1,0,1,0
1525692453493663,-3,-2,-4,-2,1,0,1,-2
1525692453495663,-2,4,0,-1,-2,-2,-2,-2
1525692453495663,-2,1,3,-4,-1,-6,0,-2
1525692453507664,-1,-23,-9,-1,1,6,0,-3
1525692453507664,2,11,8,-5,-1,0,0,-1
1525692453514664,3,-7,-3,0,-2,-4,-2,-1
1525692453514664,1,1,6,-2,-1,1,-3,1
1525692453530665,-3,3,-4,-3,-1,-2,0,-1
1525692453530665,0,0,-7,-2,0,2,1,0
1525692453532665,-1,0,2,1,-3,-11,-1,4
1525692453532665,1,-2,5,1,1,-1,0,-6
1525692453553667,0,2,0,2,1,0,1,-2
1525692453553667,-1,-8,-5,2,0,3,-1,-1
1525692453555667,-1,5,1,-5,-4,0,-1,0
1525692453555667,-1,-4,-3,1,-1,-4,-2,0
1525692453566667,0,4,5,2,1,-1,1,0
1525692453566667,1,7,-3,-5,-4,-2,-3,1
1525692453576668,-1,-20,-12,-3,2,1,-2,-2
1525692453576668,-4,3,-3,0,-2,-2,-3,-6
1525692453590669,1,-3,-2,-5,-9,0,4,12
1525692453590669,-3,-5,0,1,4,-5,-10,-3
1525692453592669,0,-6,-2,0,3,9,-1,-2
1525692453592669,-2,-3,-3,3,3,3,0,1
1525692453613670,0,1,2,-1,-3,-4,0,-3
1525692453613670,0,-6,-5,-2,-3,-2,0,0
1525692453615670,-2,2,-1,-6,-2,-2,-1,0
1525692453615670,0,3,6,0,-1,0,1,0
1525692453626671,-1,3,2,0,1,-2,-2,-2
1525692453626671,-2,3,-2,-3,0,0,0,1
1525692453635671,0,-3,3,1,-1,1,-1,-4
1525692453635671,-1,-1,-3,0,-1,0,-1,4
1525692453650672,0,0,-4,-5,-2,0,-2,4
1525692453650672,-1,-1,-1,3,1,2,0,-14
1525692453652672,-3,9,3,4,-1,-1,1,4
1525692453652672,-2,-4,-4,-1,0,-2,-3,-3
1525692453673673,-2,-2,-3,-6,-1,-2,-3,2
1525692453673673,-3,-1,-1,0,-1,3,0,3
1525692453675673,-1,1,0,-2,-3,-2,-2,-4
1525692453675673,-1,-2,-1,-7,-3,-1,-1,3
1525692453686674,1,-1,0,7,2,-6,-3,-8
1525692453686674,1,-3,1,8,1,1,0,2
1525692453696675,1,30,1,0,0,1,-1,-1
1525692453696675,-1,-24,-6,-2,-2,-2,0,-4
1525692453710675,-6,31,1,-7,-4,-3,-1,-6
1525692453710675,-1,-29,-2,1,3,-6,0,-1
1525692453712676,0,-2,2,-4,-3,-2,0,6
1525692453712676,-1,24,4,-3,0,1,4,-9
1525692453733677,2,-4,4,1,0,-3,-8,-4
1525692453733677,0,3,0,-3,-4,3,1,1
1525692453735677,1,-9,-13,1,1,-2,-1,-1
1525692453735677,0,8,18,0,2,-1,3,3
1525692453746678,-4,-36,-3,4,0,-1,1,-2
1525692453746678,-1,15,-37,-5,-1,0,-2,1
1525692453756678,1,-9,4,-1,-2,0,-1,-1
1525692453756678,1,-3,-5,2,-3,-4,-2,1
1525692453770679,-1,0,7,-1,0,-1,1,3
1525692453770679,0,4,9,3,5,3,1,0
1525692453772679,2,-7,-7,-2,-3,-3,2,-4
1525692453772679,-1,-7,0,1,-1,0,-4,0
1525692453793680,1,3,-4,0,-1,0,0,0
1525692453793680,-6,-6,2,-7,-2,1,1,0
1525692453795680,-2,11,5,-4,-3,-2,0,-1
1525692453795680,0,-3,0,3,0,4,0,2
1525692453806681,-2,-16,-15,-5,-5,-4,1,-2
1525692453806681,0,6,1,-2,-4,-6,-2,14
1525692453816682,-3,0,4,0,0,1,-2,-29
1525692453816682,0,-2,-6,-3,3,-1,0,2
1525692453830682,2,18,0,3,2,3,5,-2
1525692453830682,3,-33,18,2,1,-2,-11,3
1525692453832682,-6,-11,-14,-6,-3,-4,-2,0
1525692453832682,1,-15,5,0,-4,-1,-1,7
1525692453853684,-4,17,-26,-4,-2,0,-3,-2
1525692453853684,-1,19,12,0,-1,-2,4,-5
1525692453855684,2,-2,-6,-2,3,1,0,3
1525692453855684,0,-3,2,4,1,-1,-1,-4
1525692453866684,4,-6,-3,-9,-3,1,2,7
1525692453866684,9,5,9,-4,-1,3,9,18
1525692453876685,2,1,7,15,7,3,2,-3
1525692453876685,-12,11,-1,-8,-1,-4,-9,-32
1525692453890686,15,-4,-7,1,-4,-1,-1,19
1525692453890686,28,9,-34,-10,2,7,21,71
1525692453892686,-21,-5,27,-3,-2,-1,-5,8
1525692453892686,-61,-19,-46,-6,-20,-26,-45,-90
1525692453913687,0,-2,-42,-6,-4,-10,-16,-6
1525692453913687,22,7,10,8,3,5,14,60
1525692453915687,13,20,-13,2,2,6,16,31
1525692453915687,18,-9,12,1,3,3,-4,-8
1525692453926688,-7,-3,18,5,-3,-6,-3,-29
1525692453926688,16,7,-27,1,-1,3,11,41
1525692453935688,44,37,42,13,13,21,22,46
1525692453935688,-1,-18,-12,-18,3,1,27,19
1525692453950689,-49,-12,-7,-10,-3,9,39,19
1525692453950689,-30,-12,7,-9,-15,-45,-101,-128
1525692453952689,3,2,-18,-2,-13,-45,15,-57
1525692453952689,90,3,16,6,0,34,-30,2
1525692453973691,-20,10,4,-3,5,4,39,36
1525692453973691,-81,-14,5,10,-9,-14,-40,13
1525692453975691,-27,-12,1,-21,-1,-5,-51,-98
1525692453975691,-7,7,19,28,7,-12,24,91
1525692453986691,92,-47,-49,-22,1,17,-14,-12
1525692453986691,-90,-12,66,-1,-10,-1,-18,-42
1525692453996692,81,3,-60,3,8,4,18,114
1525692453996692,10,6,59,55,14,3,15,-13
1525692454010693,54,34,7,-23,10,14,3,-20
1525692454010693,-66,-41,-86,-8,-14,-11,44,37
1525692454016693,19,3,20,-19,-15,-24,-62,-41
1525692454016693,-32,5,21,-4,3,18,103,48
1525692454033694,68,39,36,32,9,-2,-105,-39
1525692454033694,38,5,46,-12,-3,15,103,37
1525692454035694,12,14,7,30,11,4,40,124
1525692454035694,-11,-36,-1,2,13,4,33,80
1525692454055695,-86,-34,-13,-12,-25,7,-42,-77
1525692454055695,-51,-3,5,25,17,11,-6,-44
1525692454057695,15,22,26,4,3,17,53,84
1525692454057695,-80,-32,-55,-49,-40,-74,-94,-81
1525692454070696,64,20,87,69,10,10,57,127
1525692454070696,-67,-2,-32,-51,19,22,-35,-82
1525692454076696,21,-54,-104,-81,-30,-28,-7,-56
1525692454076696,-46,34,74,41,8,11,27,35
1525692454094697,-46,-14,-51,-62,-12,-21,49,37
1525692454094697,76,60,58,69,8,30,23,-61
1525692454096698,-61,-45,46,50,-20,-44,-92,-51
1525692454096698,89,-4,-66,-86,12,9,-59,41
1525692454115699,-46,65,51,42,19,45,40,48
1525692454115699,-21,-48,-19,-27,-31,-60,23,-42
1525692454117699,38,1,-39,-26,13,37,-54,30
1525692454117699,11,57,-13,26,3,33,88,-8
1525692454130700,72,-10,83,18,12,-33,-15,70
1525692454130700,48,-6,-76,49,11,27,56,89
1525692454136700,-44,-41,49,-75,-6,9,-19,-69
1525692454136700,-28,21,7,51,-12,-45,-128,-87
1525692454153701,-52,-32,5,-38,0,-8,91,-32
1525692454153701,36,34,50,-11,-12,-23,-21,-13
1525692454155701,52,12,-16,-10,10,44,7,-51
1525692454155701,-57,-25,15,36,6,3,-36,-29
1525692454175702,14,7,-28,-6,-11,-22,31,-45
1525692454175702,20,-9,12,-55,15,39,34,45
1525692454177702,-69,36,32,83,5,25,21,53
1525692454177702,45,-19,-37,-38,-14,-45,-76,-82
1525692454189703,26,21,-37,25,18,35,26,84
1525692454189703,103,37,28,-19,13,16,-13,-32
1525692454196703,-79,-11,13,18,-1,10,127,127
1525692454196703,-84,-21,-52,-1,-26,-45,-92,-30
1525692454213704,-31,-42,34,0,-8,-19,63,17
1525692454213704,-4,-9,-14,6,8,-14,-46,114
1525692454215704,32,-3,-76,-11,10,20,48,-74
1525692454215704,-56,5,-37,-12,-24,-27,-54,24
1525692454235706,-8,-21,24,-13,-15,-19,17,-24
1525692454235706,-23,-17,-11,-28,-25,-40,-17,-33
1525692454237706,-21,3,31,20,15,2,-16,-20
1525692454237706,19,-3,55,-13,-2,47,127,117
1525692454249706,9,5,-23,17,-8,-38,-128,61
1525692454249706,37,0,40,-58,-15,-15,81,-104
1525692454258707,-92,62,18,97,20,6,46,124
1525692454258707,112,-40,77,35,12,1,47,-77
1525692454273708,22,3,22,-21,-9,39,-7,33
1525692454273708,49,-5,85,48,-5,-51,-103,59
1525692454275708,11,26,84,-41,9,58,104,-14
1525692454275708,-30,32,-34,-12,7,-7,-77,-49
1525692454295709,-117,-5,-40,59,4,-36,-83,-41
1525692454295709,26,10,-2,-24,15,29,27,25
1525692454297709,-7,1,20,13,-13,-19,33,-51
1525692454297709,8,-12,-14,-48,-9,20,-8,35
1525692454309710,-1,7,89,36,22,34,109,34
1525692454309710,-38,-18,-128,-19,-1,-20,-113,-25
1525692454318710,21,33,70,-17,-18,-23,-64,-18
1525692454318710,42,-53,-86,-47,4,11,50,55
1525692454333711,-87,32,77,41,-14,-21,-14,-80
1525692454333711,-46,-31,-64,-31,4,16,-6,39
1525692454335711,27,-14,29,-30,-9,-21,15,-46
1525692454335711,-48,17,89,0,1,5,-30,-37
1525692454355712,44,-13,37,7,8,6,-23,-61
1525692454355712,-51,1,44,68,-10,6,36,-1
1525692454357713,26,-14,-36,-18,11,20,-38,50
1525692454357713,9,21,24,-3,-8,-26,-16,-23
1525692454369713,-20,-22,-45,-31,1,-23,80,-24
1525692454369713,-12,17,19,31,2,38,-109,-41
1525692454376714,1,-31,-43,-24,-14,-56,19,-14
1525692454376714,50,21,35,26,5,103,55,59
1525692454393715,29,4,-47,-14,6,-2,45,5
1525692454393715,-8,0,-21,-21,-7,3,60,13
1525692454395715,29,-7,-1,20,-5,-59,-75,-38
1525692454395715,-1,9,-30,3,15,23,15,55
1525692454415716,8,3,-36,-28,-11,-9,-34,-39
1525692454415716,20,-7,24,4,4,30,127,3
1525692454417716,-20,-3,2,11,-2,-1,-109,3
1525692454417716,-3,18,12,3,-2,-13,35,-10
1525692454430717,19,-78,-28,-39,-3,-26,-24,-2
1525692454430717,19,11,0,12,5,8,11,46
1525692454436717,-7,1,-23,-8,0,50,11,-31
1525692454436717,13,24,14,11,10,-11,-3,37
1525692454453718,6,40,-19,-15,-9,31,7,-35
1525692454453718,1,-52,21,8,-4,15,10,-6
1525692454455718,-13,-26,-26,-6,-1,-31,44,27
1525692454455718,19,39,-4,0,-4,-59,32,6
1525692454475719,-3,-20,8,1,9,62,-33,12
1525692454475719,3,32,15,5,-3,-51,51,76
1525692454477719,1,-21,-21,-8,-9,73,-17,-13
1525692454477719,8,-51,-1,9,1,-67,-25,30
1525692454489720,6,53,10,3,4,10,1,-2
1525692454489720,13,20,-67,-2,-1,-36,-7,-8
1525692454496720,-11,-80,3,-14,-8,-23,14,25
1525692454496720,-14,34,-8,1,7,17,-8,7
1525692454513721,5,-5,-47,-15,-17,-33,-89,-27
1525692454513721,7,44,57,7,7,22,-7,18
1525692454515722,10,22,25,16,2,-47,-29,-23
1525692454515722,-11,-23,-18,0,2,51,64,18
1525692454535723,15,37,-5,0,2,20,20,-1
1525692454535723,-25,-26,-7,-5,-3,56,21,-6
1525692454537723,-3,21,-74,-14,-18,39,-54,16
1525692454537723,13,-16,-14,2,9,-2,61,19
1525692454549723,-6,11,68,-1,-7,-7,-10,-73
1525692454549723,5,38,12,4,3,-36,-46,-39
1525692454566724,-15,46,3,-1,-2,25,63,-8
1525692454566724,9,-52,-23,3,4,34,19,9
1525692454573725,-2,24,-26,-2,-1,-24,-24,-10
1525692454573725,-3,-55,2,1,-3,5,-20,-31
1525692454575725,-8,18,54,10,8,-6,3,-24
1525692454575725,11,14,7,-1,-2,-8,-23,2
1525692454595726,-7,-45,9,-7,-5,3,18,21
1525692454595726,10,32,12,-3,0,9,12,12
1525692454597726,7,-14,-25,2,2,-17,-16,14
1525692454597726,2,-4,9,-3,0,-1,-27,-10
1525692454609727,-15,-4,58,1,0,-36,-13,36
1525692454609727,-5,-85,-65,0,3,25,-9,-15
1525692454619727,10,105,-17,-10,-11,50,9,14
1525692454619727,-4,-19,-2,-8,-6,-39,-25,-58
1525692454632728,-12,8,-34,-15,-4,17,0,12
1525692454632728,25,36,38,21,5,-44,5,48
1525692454633728,-6,-20,52,11,7,-73,3,-38
1525692454633728,2,26,-14,-3,0,110,-24,4
1525692454654729,13,20,-12,-1,-5,-30,27,-5
1525692454654729,-21,2,-11,-16,-9,11,-21,1
1525692454655730,-3,-51,-21,4,5,-41,-8,15
1525692454655730,1,68,27,-1,-3,-13,-1,2
1525692454677731,5,-35,-1,5,4,-4,1,31
1525692454677731,-12,-48,-85,-8,-6,-3,-2,-22
1525692454678731,-1,21,40,2,-2,4,-18,-24
1525692454678731,-1,-30,5,0,1,-9,14,-17
1525692454692732,11,23,37,4,2,-3,9,36
1525692454692732,-17,21,21,5,3,9,-18,-15
1525692454693732,4,-53,-27,0,3,8,9,-13
1525692454693732,-6,13,13,1,-4,-21,-15,34
1525692454714733,-18,-16,-24,-16,-8,1,1,22
1525692454714733,19,42,62,6,3,-8,10,-44
1525692454715733,3,7,-12,-2,-1,-2,-4,14
1525692454715733,-3,22,8,5,1,3,1,-7
1525692454737734,5,-37,14,5,3,6,3,7
1525692454737734,2,43,-4,-9,-7,-18,-5,4
1525692454738734,-3,-49,-21,0,1,10,-2,8
1525692454738734,1,-23,35,-3,1,-55,6,-37
1525692454752735,2,35,-9,9,3,36,-10,17
1525692454752735,-9,-50,-5,-3,-2,-6,-1,-24
1525692454753735,5,34,-26,-8,-3,22,-5,1
1525692454753735,0,27,69,8,-3,-88,7,10
1525692454774736,-5,-79,-83,-10,2,55,-9,-11
1525692454774736,1,-15,0,3,-2,-25,10,29
1525692454775736,-9,-22,-6,-6,-4,6,-14,-30
1525692454775736,0,-13,-12,-6,-1,7,4,3
1525692454797738,4,33,14,14,4,-22,-3,-1
1525692454797738,8,-1,1,3,2,17,0,2
1525692454798738,-14,-50,9,-3,-2,-17,12,3
1525692454798738,-3,-2,-16,-5,-2,23,-1,9
1525692454820739,4,-14,-19,-3,-3,-16,-7,-19
1525692454820739,1,66,14,3,3,13,-6,0
1525692454821739,0,-53,43,3,1,-16,15,6
1525692454821739,-10,29,-43,-11,-8,20,-6,-15
1525692454834740,-1,13,31,14,5,5,2,5
1525692454834740,16,-13,-18,-6,-6,-11,0,4
1525692454835740,-6,38,75,23,6,-5,0,4
1525692454835740,-4,-111,-99,-14,-5,23,3,4
1525692454857741,3,22,24,-12,-5,-21,-6,-3
1525692454857741,-7,27,51,8,5,9,1,-5
1525692454858741,6,13,-25,5,1,-14,-9,3
1525692454858741,1,-5,53,4,-1,15,1,4
1525692454872742,-8,-2,-23,-9,-6,8,-4,-6
1525692454872742,2,5,-15,-1,0,29,1,-6
1525692454873742,-1,-1,-12,-9,-4,-4,0,-7
1525692454873742,-4,-12,-7,-4,-2,1,-1,-4
1525692454894743,2,-6,-23,5,-1,-19,0,-1
1525692454894743,-5,-6,22,-3,-1,-17,2,6
1525692454895743,-3,16,-26,-3,2,17,-4,-1
1525692454895743,0,42,-1,-3,0,-1,1,0
1525692454917745,-2,-42,-4,-3,-2,-5,0,1
1525692454917745,-1,-6,34,-3,-5,-4,-2,-2
1525692454918745,1,22,-47,-3,0,-3,-3,-3
1525692454918745,2,-35,6,11,4,4,-2,-3
1525692454932745,-5,2,10,-5,0,6,5,2
1525692454932745,-2,20,-16,3,-1,-11,-4,-3
1525692454933745,2,-33,11,-5,-4,-2,-1,1
1525692454933745,-6,29,-33,-7,-5,3,-1,3
1525692454954747,4,27,-36,-1,-1,-1,-3,-20
1525692454954747,-8,-40,9,-9,-1,-7,-12,0
1525692454955747,-1,22,54,3,-2,8,2,0
1525692454955747,5,2,-7,0,-1,3,3,3
1525692454977748,-4,-18,0,-8,-2,-42,-3,2
1525692454977748,-1,13,-10,-1,4,40,2,-1
1525692454978748,4,6,-15,6,-2,-15,0,4
1525692454978748,-2,-3,15,1,1,9,-4,0
1525692454992749,1,19,13,1,-3,20,3,-9
1525692454992749,-10,-37,-4,-3,-4,-29,-1,9
1525692454993749,3,-6,11,-2,4,7,-2,-18
1525692454993749,0,9,-38,1,-2,-4,2,4
1525692455014750,2,-25,0,-2,-1,10,-1,2
1525692455014750,2,9,-5,1,-4,-5,-6,1
1525692455015750,-4,-27,-5,-6,-2,-3,-3,7
1525692455015750,7,39,33,8,4,10,3,-5
1525692455037751,-5,-39,6,3,-2,1,-2,1
1525692455037751,-3,-3,-65,-12,-4,0,2,2
1525692455038751,-1,17,4,3,-1,-6,1,3
1525692455038751,1,20,47,2,1,1,-3,-3
1525692455052752,-4,-8,-23,6,0,-1,-2,5
1525692455052752,3,-15,11,-11,0,-6,4,-3
1525692455053752,-3,4,-8,7,-2,-7,-4,-1
1525692455053752,-2,3,-16,-2,0,10,-2,-4
1525692455074754,-1,41,58,4,-2,-1,-4,2
1525692455074754,4,-11,-23,-2,-1,-9,-1,-5
1525692455075754,-9,-14,-21,-11,-3,7,0,-2
1525692455075754,0,-10,11,0,-2,-27,0,-1
1525692455097755,-1,17,-5,-1,-2,13,-1,2
1525692455097755,6,8,14,8,3,-3,1,-5
1525692455098755,2,-15,9,-4,-2,3,3,2
1525692455098755,-4,-8,-7,3,0,-2,-1,6
1525692455112756,0,-5,-5,-5,1,-9,-2,-4
1525692455112756,1,10,11,7,1,2,3,4
1525692455113756,3,12,-12,0,3,5,-1,-3
1525692455113756,-8,-23,-18,-5,-4,1,-6,-10
1525692455134757,0,15,-5,-5,-3,0,-2,2
1525692455134757,0,0,-5,5,2,1,0,0
1525692455135757,-2,23,30,-5,-2,-10,1,2
1525692455135757,6,2,7,6,0,7,1,0
1525692455157758,-5,-22,-9,-8,-2,-3,-1,-2
1525692455157758,-1,19,32,4,3,-2,0,12
1525692455158758,2,7,7,-6,0,1,-4,-26
1525692455158758,-1,-15,-47,-1,-1,-15,1,2
1525692455172759,0,1,6,5,1,16,-2,1
1525692455172759,-6,-6,-1,-3,-3,0,0,-4
1525692455173759,-1,-2,0,-2,-2,-11,-3,7
1525692455173759,-2,-2,16,-6,-3,15,-2,-4
1525692455194760,-3,-4,-7,1,1,-9,2,0
1525692455194760,1,20,3,-1,-2,1,-3,-5
1525692455195760,-6,-12,-5,1,0,-2,-1,6
1525692455195760,-2,-4,-3,-2,-1,-5,-2,-4
1525692455217762,2,34,-9,-2,-2,-2,-1,4
1525692455217762,1,-27,0,2,-1,5,0,-3
1525692455218762,-4,-53,-11,-2,-2,-8,-1,-2
1525692455218762,-1,31,15,-2,1,3,9,4
1525692455232763,-10,-25,-30,-8,-4,1,-7,-6
1525692455232763,0,21,6,5,5,4,1,-3
1525692455233763,2,-7,-3,-1,-1,0,0,2
1525692455233763,-4,-10,19,-1,0,1,3,2
1525692455254764,5,10,-7,-2,-2,-5,6,0
1525692455254764,-1,-11,6,4,-2,-2,-12,-4
1525692455255764,-2,4,-5,-7,-2,3,0,3
1525692455255764,2,0,-1,17,5,2,-2,-1
1525692455277765,1,-5,7,3,3,-11,-1,1
1525692455277765,-1,-3,-18,-8,-3,4,1,2
1525692455278765,2,0,6,-2,-5,5,-1,-1
1525692455278765,0,-4,-1,-7,-2,4,-4,-1
1525692455292766,-3,-19,4,2,2,7,-1,-2
1525692455292766,-2,1,8,3,-2,-10,5,-3
1525692455293766,4,56,-2,1,-1,2,0,17
1525692455293766,-7,-96,-26,-7,-2,-3,-3,-14
1525692455314767,-3,4,-43,-6,-1,-8,-2,3
1525692455314767,6,12,12,-4,-3,-7,-3,-8
1525692455315767,-3,22,4,2,-1,10,-1,-6
1525692455315767,6,37,28,-2,0,-2,-2,6
1525692455337769,-1,-25,12,-1,1,-1,0,-1
1525692455337769,0,-11,-10,4,2,-1,1,-7
1525692455338769,3,4,1,3,2,-8,-1,5
1525692455338769,-4,-3,-8,-3,-3,0,1,-4
1525692455352769,0,13,8,-3,-3,8,-2,-3
1525692455352769,-4,-35,-15,-7,-5,-1,5,-2
1525692455353769,6,13,4,6,2,-4,0,-2
1525692455353769,-5,17,5,1,1,-3,-4,-1
1525692455374771,-1,18,7,2,-3,-8,-5,-8
1525692455374771,2,-17,0,-6,0,5,12,8
1525692455375771,-13,-2,-24,-6,0,1,-1,-2
1525692455375771,0,-3,-10,2,-1,0,-1,1
1525692455397772,2,9,22,2,1,4,2,3
1525692455397772,3,3,-3,-3,-3,-3,-1,-4
1525692455398772,0,-18,-10,3,3,1,-2,-1
1525692455398772,2,46,26,-7,-1,-3,-1,-1
1525692455412773,-6,-64,3,-2,-5,-2,2,-2
1525692455412773,-3,1,-47,-3,0,1,-6,-3
1525692455413773,5,10,32,-1,-6,-7,-1,10
1525692455413773,-6,-61,-19,0,-2,6,-5,-14
1525692455434774,1,16,-2,-3,-1,-7,0,-1
1525692455434774,-5,-13,9,-1,-2,-1,5,15
1525692455435774,0,6,-5,2,2,5,-12,-18
1525692455435774,3,3,6,4,1,-5,3,9
1525692455457775,3,28,14,2,-1,-13,2,-4
1525692455457775,-5,-19,-3,-1,1,14,-4,-3
1525692455458775,2,6,-11,-3,0,-6,2,5
1525692455458775,-6,-13,2,-5,-1,-1,-1,-2
1525692455472776,3,0,-5,1,-1,4,0,1
1525692455472776,-1,24,-10,-2,1,-9,-3,-1
1525692455473776,-1,-37,17,2,-4,2,-1,-3
1525692455473776,-1,11,-4,-2,1,1,-2,-2
1525692455494778,4,9,-6,11,3,1,0,4
1525692455494778,-1,15,38,11,1,-8,-3,0
1525692455495778,-5,7,-5,-6,-1,10,-2,0
1525692455495778,-1,-12,-49,-6,-6,-7,-1,-3
1525692455517779,-4,-3,7,-7,-1,-3,-2,2
1525692455517779,3,5,1,-3,1,8,-6,-4
1525692455518779,0,-1,-2,-1,-1,-5,10,1
1525692455518779,1,17,16,3,1,1,0,4
1525692455531780,3,6,0,-1,0,3,0,-2
1525692455531780,-3,-1,-7,-1,-2,-5,-4,-6
1525692455539780,-2,2,-2,-1,0,0,4,-3
1525692455539780,6,7,4,0,-3,-3,-7,17
1525692455554781,-2,-18,5,3,-2,-14,0,4
1525692455554781,-5,30,7,-2,3,27,8,-3
1525692455555781,1,-15,-17,-2,-1,-3,-15,-3
1525692455555781,-3,-4,1,0,-1,-17,0,-5
1525692455577782,-3,31,7,-3,-1,17,-5,-12
1525692455577782,2,-28,12,0,-1,-5,5,13
1525692455578782,0,15,-23,-2,0,-1,4,0
1525692455578782,-3,9,-7,-2,3,0,0,-7
1525692455591783,0,17,15,-4,-3,-8,-2,7
1525692455591783,-1,-26,-11,-6,-3,-8,-2,-11
1525692455599784,-3,4,33,7,4,9,3,-1
1525692455599784,2,-16,-28,-1,0,-5,-1,1
1525692455614784,-2,6,-2,-5,1,5,2,-1
1525692455614784,-1,0,-1,-4,-4,-8,-4,-1
1525692455615784,4,-13,-5,1,-3,-2,-2,0
1525692455615784,0,16,24,0,-1,5,2,2
1525692455637786,-2,3,-12,0,1,5,0,-5
1525692455637786,-3,-32,-5,-4,0,-4,-1,3
1525692455638786,-1,1,7,0,-1,-2,-2,-7
1525692455638786,-5,0,-1,-1,0,7,0,-3
1525692455651787,6,-1,-10,-3,-2,2,2,4
1525692455651787,-2,-7,35,6,2,-11,-2,-4
1525692455659787,0,-2,-58,-4,-3,1,1,4
1525692455659787,2,13,17,-1,-3,5,0,-4
1525692455674788,-2,-49,-8,0,-2,-4,-2,3
1525692455674788,2,26,-6,2,-2,-2,-2,-2
1525692455675788,-4,-18,20,1,4,0,2,-2
1525692455675788,7,9,-1,4,1,2,0,5
1525692455697789,-7,-38,-19,-3,-2,-3,-5,-10
1525692455697789,8,75,17,-3,-3,-2,3,1
1525692455698789,-6,-80,0,-7,-6,-8,8,7
1525692455698789,-1,19,-20,-3,-1,0,3,-12
1525692455711790,1,0,-28,-2,0,1,-3,14
1525692455711790,-6,0,-8,2,1,0,-9,-19
1525692455719790,5,39,6,-4,1,-1,2,-1
1525692455719790,-1,-9,42,3,1,-3,2,9
1525692455734791,2,13,-17,-1,1,0,0,-14
1525692455734791,1,-10,-4,-2,-4,2,0,6
1525692455736791,-7,-18,-3,-6,-5,-3,2,2
1525692455736791,8,27,4,10,6,1,-22,11
1525692455757793,2,-12,33,8,4,4,-41,-11
1525692455757793,1,-35,-32,-8,-4,-1,39,-2
1525692455758793,-7,42,41,-4,-7,1,55,18
1525692455758793,-5,-77,-22,-9,-8,-37,-10,-18
1525692455771793,15,93,3,3,3,18,24,89
1525692455771793,-6,-44,20,5,1,-17,-18,-87
1525692455779794,5,1,36,1,0,15,3,2
1525692455779794,-16,-85,-103,-25,-12,5,67,14
1525692455794795,-7,58,72,5,5,-6,-40,-18
1525692455794795,14,11,17,6,2,-2,-9,34
1525692455795795,-4,18,7,2,-1,-4,-25,-5
1525692455795795,7,6,12,8,2,1,-9,-8
1525692455817796,-16,-55,9,-3,3,-4,19,-4
1525692455817796,-16,-3,-46,12,1,6,-11,9
1525692455818796,3,-3,-6,-5,-4,-6,-23,-9
1525692455818796,-8,33,15,2,-1,7,-13,-17
1525692455831797,10,-2,-7,-4,-2,-4,31,5
1525692455831797,-9,-22,-61,-19,-4,4,-49,-10
1525692455839797,7,10,27,8,-1,-10,-7,40
1525692455839797,11,67,69,5,3,-3,15,38
1525692455854798,-18,-95,-98,-35,-11,17,28,-56
1525692455854798,-12,88,84,10,0,-4,27,44
1525692455855798,5,15,-41,0,9,-3,-107,-54
1525692455855798,4,39,36,-1,-3,-6,-22,-13
1525692455877799,16,14,6,8,-4,-9,-5,4
1525692455877799,1,57,-38,-7,0,4,14,-7
1525692455878800,-25,-53,-11,-2,2,11,0,-32
1525692455878800,6,-15,-43,2,-3,5,40,70
1525692455902801,1,49,-30,5,-4,-6,-6,-38
1525692455902801,3,-103,-9,-22,2,2,21,-17
1525692455903801,35,102,54,9,2,-4,-6,57
1525692455903801,-20,50,96,10,5,15,44,-110
1525692455914802,-24,-120,2,-5,-10,-3,-40,31
1525692455914802,-16,19,-94,-16,-14,-11,81,12
1525692455915802,23,28,78,7,6,-35,-34,6
1525692455915802,-17,-6,-27,4,6,8,1,-40
1525692455937803,26,60,50,16,5,-3,-7,26
1525692455937803,-2,-8,48,4,1,5,-42,-45
1525692455938803,-9,-46,-78,-7,-1,12,42,30
1525692455938803,-3,36,40,-3,-6,2,-29,-28
1525692455960804,-16,-68,-59,1,0,-19,15,16
1525692455960804,2,-7,55,9,5,4,-39,34
1525692455961804,-11,31,-31,-6,-2,20,34,14
1525692455961804,26,-5,45,-2,-6,-21,-48,0
1525692455974805,-33,6,-22,18,5,10,42,14
1525692455974805,10,6,-5,-40,-11,-10,-11,-3
1525692455975805,0,45,20,9,0,5,29,33
1525692455975805,18,-6,-24,-15,8,23,-52,-86
1525692455997806,23,91,127,38,1,-25,-79,30
1525692455997806,-17,-32,-101,-1,-1,5,-25,-28
1525692455998806,-1,18,48,-26,-8,20,92,-28
1525692455998806,-42,-94,-117,-8,-4,-28,-87,59
1525692456020808,-14,96,9,-8,-1,8,-54,-49
1525692456020808,-31,-67,54,13,-5,0,31,70
1525692456021808,2,-2,-57,5,1,-20,-74,-67
1525692456021808,24,43,77,13,2,19,99,64
1525692456034808,2,-36,-59,-14,3,-11,-14,-73
1525692456034808,-12,-29,13,14,-3,3,-15,-62
1525692456035808,-1,15,-24,-22,2,10,62,14
1525692456035808,-10,-63,-69,6,-2,1,-11,13
1525692456057810,26,78,-42,-27,-2,19,25,55
1525692456057810,33,-48,64,33,8,21,71,-5
1525692456058810,-31,-43,-42,8,-21,-22,-44,0
1525692456058810,4,104,119,31,6,-1,-4,10
1525692456080811,46,-44,-70,-108,-22,15,78,-44
1525692456080811,4,127,109,56,15,-19,55,64
1525692456081811,24,-105,-66,1,4,20,-41,67
1525692456081811,-58,35,-77,-25,-31,-33,-13,-47
1525692456094812,-7,83,77,22,-4,39,-33,-74
1525692456094812,52,122,92,-7,6,-48,-6,24
1525692456095812,10,-59,-36,11,10,32,-96,-47
1525692456095812,-5,-2,29,7,4,-19,106,26
1525692456117813,-49,26,21,11,0,-13,-15,-59
1525692456117813,62,58,-104,-10,-4,-19,-73,107
1525692456118813,-38,-50,87,34,8,-2,111,-61
1525692456118813,12,-11,-71,-39,-6,41,-122,-18
1525692456140814,-35,18,-7,35,11,-16,110,66
1525692456140814,-6,45,81,0,-13,5,-61,-89
1525692456141815,23,28,70,76,14,9,49,23
1525692456141815,-10,-35,-38,-108,5,35,49,19
1525692456154815,34,0,50,9,8,28,12,31
1525692456154815,-91,-128,-55,-24,-16,-50,-52,-55
1525692456155815,-8,115,-21,-11,-12,-25,20,3
1525692456155815,-15,-20,127,54,14,-21,-96,-23
1525692456177817,61,-22,80,2,4,16,48,75
1525692456177817,66,-51,-10,-10,4,19,37,-5
1525692456178817,-49,-66,-71,-61,-26,74,29,99
1525692456178817,36,127,28,15,-6,-92,40,-26
1525692456200818,-18,-79,59,13,11,15,39,24
1525692456200818,19,3,-22,11,0,23,9,-60
1525692456201818,-37,67,110,-5,-4,-18,62,-16
1525692456201818,64,-9,-85,-14,3,55,53,47
1525692456214819,-74,-47,87,68,0,-17,-22,-92
1525692456214819,9,-77,-74,-59,4,20,-26,14
1525692456215819,11,-39,39,0,8,5,35,-16
1525692456215819,-40,-1,-15,7,-5,-2,23,-4
1525692456237820,11,120,118,62,5,-35,-39,26
1525692456237820,-14,7,-112,-74,-5,32,-27,-12
1525692456238820,-1,112,102,58,11,-20,45,-11
1525692456238820,9,-84,-42,-48,8,10,-3,23
1525692456260821,39,-71,-10,-12,-10,-17,73,-40
1525692456260821,-69,8,-81,12,-2,74,10,60
1525692456261821,23,26,-44,-30,-22,-78,-73,-28
1525692456261821,71,23,116,88,9,54,11,-4
1525692456274822,23,40,8,-4,9,47,83,90
1525692456274822,-62,-51,8,-41,-17,-31,99,14
1525692456275822,49,105,105,14,11,19,-63,-38
1525692456275822,-15,-14,-87,-17,-21,-9,-58,-3
1525692456297823,-14,65,-79,-24,-3,-47,-104,8
1525692456297823,51,70,127,38,18,40,51,-17
1525692456298824,-34,-91,31,1,6,-11,-17,-21
1525692456298824,-8,23,12,32,-11,-31,4,0
1525692456321825,24,17,-90,-84,9,71,-95,-27
1525692456321825,1,28,93,43,-18,-18,-7,41
1525692456322825,-27,-32,-93,-30,3,-23,2,-36
1525692456322825,18,9,23,-50,-4,7,-1,24
1525692456334826,-25,-72,5,19,-12,-26,-52,-45
1525692456334826,9,83,-96,-2,9,-9,-81,-18
1525692456342826,9,-110,-24,-76,-25,37,86,100
1525692456342826,18,112,110,54,7,-3,-42,-44
1525692456357827,6,32,-72,2,0,26,37,40
1525692456357827,-32,-61,-66,-14,-6,-9,55,-15
1525692456358827,-50,105,33,20,8,45,64,-58
1525692456358827,11,10,20,6,5,-40,-91,-1
1525692456380828,68,42,94,8,-5,40,41,35
1525692456380828,25,-21,59,29,2,-1,-34,-19
1525692456381828,13,8,34,36,1,-16,-62,-3
1525692456381828,-82,-100,-68,-60,-12,20,27,-45
1525692456394829,0,74,112,1,1,-3,59,4
1525692456394829,-5,-20,50,19,1,-72,-112,9
1525692456395829,57,-34,-28,-34,8,55,36,-13
1525692456395829,-20,2,-56,-9,-6,-3,13,28
1525692456417830,-51,-33,-69,-41,-5,-18,-1,-1
1525692456417830,34,100,15,12,5,7,36,3
1525692456418830,-10,77,60,6,-7,-16,-22,-7
1525692456418830,-3,-18,21,21,4,32,127,62
1525692456440832,-44,-26,-34,-1,-7,-43,3,-75
1525692456440832,14,87,104,2,-5,-5,-71,-28
1525692456441832,14,-87,-88,12,3,-8,-40,-66
1525692456441832,-4,-7,-14,2,0,-33,-23,-1
1525692456454832,-7,3,-25,10,9,37,54,-8
1525692456454832,0,-38,100,10,0,-59,109,14
1525692456455833,8,35,-78,4,-5,-41,-53,28
1525692456455833,-14,-93,18,1,-2,7,43,8
1525692456477834,-26,66,-54,-14,1,16,-7,1
1525692456477834,34,31,114,72,20,8,-25,-2
1525692456478834,-52,-70,-128,-118,-21,13,-39,12
1525692456478834,30,64,127,55,6,-25,-29,-5
1525692456500835,14,-74,-69,-7,-3,-18,-47,23
1525692456500835,-17,2,6,-13,-6,21,39,0
1525692456501835,18,30,63,34,15,-9,30,-1
1525692456501835,9,-28,-40,6,3,24,20,20
1525692456514836,2,-17,20,-4,-11,-43,-54,-11
1525692456514836,-11,-5,-43,-8,10,18,-81,-6
1525692456522836,-23,-15,-18,11,-3,6,-3,19
1525692456522836,32,-1,8,-14,4,-5,43,-50
1525692456537837,-34,-16,-18,11,-3,-12,-39,29
1525692456537837,-14,-27,-24,-18,0,14,-14,-62
1525692456538837,25,-3,-4,8,-2,-12,16,22
1525692456538837,-18,-7,11,-5,-5,10,22,9
1525692456560839,-7,-42,-56,-8,-6,-18,-83,-20
1525692456560839,-2,18,-33,7,8,27,62,13
1525692456561839,2,29,60,-1,-6,-15,-28,-10
1525692456561839,10,-20,-75,-15,1,6,-15,0
1525692456574839,-9,-28,-3,-16,1,1,56,3
1525692456574839,-12,-13,-24,-10,-6,0,-1,18
1525692456582840,7,24,13,12,6,-1,-9,1
1525692456582840,-11,10,-7,-6,-4,6,-1,10
1525692456597841,10,-8,59,14,4,-1,3,1
1525692456597841,-8,-1,-45,-12,-5,8,23,10
1525692456598841,8,14,27,18,2,-22,-19,-3
1525692456598841,-5,11,-1,-1,0,20,4,-7
1525692456620842,9,3,5,-1,-3,-8,7,-10
1525692456620842,-5,10,14,2,0,2,16,7
1525692456621842,5,-9,-38,0,0,1,9,0
1525692456621842,-12,23,12,-5,-1,-10,-19,-1
1525692456634843,5,15,17,16,0,-3,9,2
1525692456634843,-6,-14,-18,-18,2,7,15,9
1525692456642843,5,13,52,27,4,2,-5,-1
1525692456642843,-10,15,-29,21,3,-1,-5,-3
1525692456657844,5,4,24,-11,-1,2,4,0
1525692456657844,2,-27,-39,-35,-12,-2,9,3
1525692456658844,-1,-27,-30,4,1,1,-5,-2
1525692456658844,-3,17,37,2,4,0,-4,1
1525692456680845,8,1,8,25,4,-4,9,3
1525692456680845,-3,-5,6,-14,-6,4,4,4
1525692456681845,0,-4,6,4,-2,0,-3,1
1525692456681845,-5,-2,-11,3,-1,-1,-2,-5
1525692456694846,1,-8,1,-9,-3,-5,1,-1
1525692456694846,-7,-4,-9,2,0,-1,1,-3
1525692456702847,5,2,1,-3,-2,1,-2,2
1525692456702847,-2,5,6,-10,1,2,0,0
1525692456717847,3,-7,-6,2,0,-1,-1,-2
1525692456717847,-4,4,18,15,1,0,4,4
1525692456718848,0,11,-25,-14,0,1,0,-3
1525692456718848,-2,12,15,-13,-5,-5,-5,1
1525692456740849,-3,-18,1,4,1,2,3,0
1525692456740849,0,0,-11,10,3,0,2,1
1525692456741849,-3,-1,5,4,-3,-3,-2,-2
1525692456741849,-3,31,11,-6,-2,-1,0,-1
1525692456754850,1,-38,2,-4,-1,1,0,-1
1525692456754850,3,12,0,2,-2,-2,1,0
1525692456762850,0,13,-7,2,0,1,-2,-2
1525692456762850,1,-22,6,3,3,2,-1,-1
1525692456778851,-3,0,-2,-7,-4,-2,1,-1
1525692456778851,0,-5,-6,6,4,2,1,1
1525692456779851,0,10,19,-6,-2,0,-1,0
1525692456779851,0,-7,-17,8,-5,-13,0,1
1525692456800852,1,24,-16,-7,0,7,-1,-2
1525692456800852,-1,-12,-5,-5,-4,5,1,-3
1525692456801852,1,18,8,8,1,-6,0,0
1525692456801852,-1,9,26,-2,-1,7,8,1
1525692456814853,0,-22,-4,3,-1,-5,-15,-2
1525692456814853,-4,10,-14,2,-3,-1,1,-2
1525692456822854,-1,-7,15,-4,0,3,0,-2
1525692456822854,-2,-3,-14,-5,-3,-7,-4,1
1525692456837854,-6,3,-1,4,0,2,5,0
1525692456837854,3,10,-3,-1,-1,1,1,1
1525692456838854,-5,-16,-10,0,-2,-4,-3,-2
1525692456838854,-1,10,1,-3,0,0,-3,-1
1525692456860856,2,-19,4,-9,-5,-2,1,-2
1525692456860856,0,-23,8,10,1,-5,-5,1
1525692456861856,-1,-4,7,-1,2,0,1,-2
1525692456861856,0,-5,-47,-6,0,2,-2,-1
1525692456883857,1,23,3,0,-4,0,3,-2
1525692456883857,1,-9,1,0,-1,-3,-1,0
1525692456883857,2,3,19,1,-1,0,-2,0
1525692456883857,0,-5,20,4,0,2,-1,0
1525692456897858,-8,-10,-90,-17,-4,-6,-1,-3
1525692456897858,0,13,16,-1,-1,-2,-1,-3
1525692456898858,1,5,1,4,2,1,-1,1
1525692456898858,2,5,10,-8,-3,0,-1,-1
1525692456920859,2,9,26,9,5,-1,3,2
1525692456920859,-3,0,-14,5,1,-3,-3,-1
1525692456921859,-1,-6,-6,-8,-1,1,-3,-2
1525692456921859,-2,-11,-2,-6,-3,-4,-1,-2
1525692456942860,0,2,2,-7,-3,-2,-1,-2
1525692456942860,-1,2,-8,-3,0,2,0,0
1525692456943860,1,-11,8,-1,3,4,-1,-1
1525692456943860,-3,-4,-10,4,2,2,-2,-1
1525692456957861,0,7,5,-4,-4,-4,-1,0
1525692456957861,0,2,8,-11,-4,13,0,-1
1525692456958861,0,-6,-14,0,-3,-7,1,-2
1525692456958861,3,-7,-7,-3,0,4,-2,-1
1525692456980863,-2,19,16,2,2,-7,0,1
1525692456980863,2,-3,0,4,-3,-6,-4,1
1525692456981863,-3,-12,-15,-1,1,2,-1,-3
1525692456981863,-3,-8,-4,5,2,-1,-1,0
1525692457003864,1,13,16,2,-1,-1,2,-2
1525692457003864,-1,2,-1,-7,-1,-4,2,0
1525692457004864,-4,-3,-9,-5,-2,-1,-1,0
1525692457004864,-4,-11,8,12,0,-4,-1,-3
1525692457017865,-1,-4,-5,-9,2,6,2,0
1525692457017865,1,2,-1,-4,-4,-2,-1,0
1525692457018865,-2,-1,-6,4,4,0,1,0
1525692457018865,0,3,1,11,4,0,-1,1
1525692457040866,1,-4,9,11,-2,1,-3,0
1525692457040866,-1,-2,-10,-7,-2,-3,0,-2
1525692457041866,1,-3,-2,-9,-4,-2,-1,-2
1525692457041866,-4,0,7,7,1,7,2,-3
1525692457062867,1,0,1,-1,-1,-3,-1,-1
1525692457062867,-1,-3,-1,-1,-2,-13,-1,-1
1525692457063867,-3,-2,-5,-3,-4,-4,-2,1
1525692457063867,-2,6,-3,-7,1,16,-2,-3
1525692457077868,1,-6,3,3,-3,-5,1,-1
1525692457077868,-2,-2,-3,3,2,-16,-1,1
1525692457078868,0,-1,2,-2,0,6,-3,-3
1525692457078868,1,-1,-4,-2,-3,42,3,0
1525692457100869,1,0,6,6,3,-2,-2,0
1525692457100869,-2,3,-3,-7,-3,7,-3,-1
1525692457101869,1,-4,7,10,3,-19,1,2
1525692457101869,0,8,-13,-4,0,-18,-1,2
1525692457122871,0,-56,-7,1,-1,11,0,-1
1525692457122871,-3,29,-3,-14,-2,-8,-1,-2
1525692457123871,1,-11,10,6,-2,5,-1,-2
1525692457123871,-1,9,4,7,1,-8,-3,-1
1525692457137872,1,5,3,-1,0,-3,2,1
1525692457137872,4,3,8,-7,1,1,0,0
1525692457138872,0,-12,-16,-6,0,4,0,-1
1525692457138872,-4,-3,-4,-2,-4,-6,1,1
1525692457160873,-1,20,3,0,1,-6,-1,0
1525692457160873,-2,-16,-1,5,1,-3,-1,0
1525692457161873,-3,22,12,-3,-1,8,-2,-3
1525692457161873,-1,-6,4,-1,-4,-13,0,0
1525692457182874,-1,9,-6,-1,0,0,1,0
1525692457182874,-1,3,1,5,2,19,0,0
1525692457183874,1,-5,-4,2,-1,-6,1,1
1525692457183874,2,8,4,-4,0,-11,-2,0
1525692457197875,-6,-13,-2,3,3,4,0,-3
1525692457197875,-1,-35,-15,-4,-3,-1,0,0
1525692457198875,-3,-13,-4,2,-2,-3,0,-1
1525692457198875,1,15,6,-2,-1,-1,-3,-1
1525692457219876,1,19,12,-4,0,1,0,0
1525692457219876,1,-8,2,7,2,-1,-1,-3
1525692457220876,-2,4,-6,4,-3,-1,0,1
1525692457220876,-3,-9,5,-10,-2,-5,-3,-2
1525692457242878,1,-5,-11,1,-1,-2,-2,-1
1525692457242878,-1,1,-7,-4,-1,-2,-3,-3
1525692457243878,0,4,5,0,-1,15,0,-2
1525692457243878,-3,-9,-8,-7,-3,-5,1,0
1525692457257878,-1,4,-2,9,2,-1,-2,-3
1525692457257878,-1,9,4,0,-1,-6,0,0
1525692457258878,0,8,3,-9,0,-2,1,0
1525692457258878,2,-7,-3,9,-2,-4,-1,0
1525692457279880,-5,4,0,-13,-3,-1,-1,-2
1525692457279880,6,-1,0,8,4,6,2,2
1525692457280880,1,-3,-3,7,-2,-11,-3,-1
1525692457280880,-5,-7,-4,-3,-2,5,0,-1
1525692457302881,-1,2,-1,-7,-4,-4,-1,0
1525692457302881,-1,3,0,-1,-4,-4,-4,-2
1525692457303881,-4,-5,-2,-7,-1,-2,-2,0
1525692457303881,1,3,-7,-2,1,-2,0,-1
1525692457317882,-2,7,8,6,-2,3,-2,-1
1525692457317882,-2,-7,-4,-5,-2,1,1,-1
1525692457318882,-1,-1,-1,-3,-2,-5,1,1
1525692457318882,-1,-2,-2,-3,-1,-3,-1,-1
1525692457339883,0,-2,0,-3,1,2,0,-1
1525692457339883,-3,13,1,3,0,2,-3,-1
1525692457340883,0,-48,-3,-6,-3,0,-1,-3
1525692457340883,-2,22,-1,-10,-4,-7,-1,-2
1525692457362884,1,-9,0,4,3,11,2,1
1525692457362884,0,5,-9,6,1,-2,0,0
1525692457363884,-1,8,-4,-14,-3,2,-2,-2
1525692457363884,1,-4,4,22,4,3,-1,0
1525692457377885,-1,-1,2,-6,-1,-12,0,0
1525692457377885,1,6,5,-3,-4,-3,0,0
1525692457378885,-2,6,0,0,0,0,0,-2
1525692457378885,0,-11,-3,-3,-1,-4,0,0
1525692457399887,-1,8,-3,-1,0,-1,0,-2
1525692457399887,-2,-13,2,-1,0,6,0,1
1525692457400887,1,8,-3,4,-1,-1,1,0
1525692457400887,-1,-4,-2,-4,-1,8,0,-1
1525692457422888,0,-4,0,-2,-3,0,-1,-1
1525692457422888,-3,-11,-4,-6,0,-4,-1,-1
1525692457423888,2,9,0,2,1,1,0,2
1525692457423888,-2,-1,-6,-3,2,0,1,1
1525692457436889,0,0,1,3,-6,-4,-2,-1
1525692457436889,-2,-6,0,-6,-5,-2,-1,-2
1525692457444889,1,4,-2,5,1,0,0,0
1525692457444889,1,-8,0,-2,-1,-3,-1,0
1525692457459890,-1,-2,-5,-11,-2,-1,-1,-1
1525692457459890,-2,3,2,18,2,-1,1,2
1525692457460890,1,23,6,-4,1,3,-2,-2
1525692457460890,2,-16,-3,-2,-1,-3,0,0
1525692457482891,-5,11,-13,3,-4,3,0,-3
1525692457482891,-2,-1,1,-7,0,-1,-1,-1
1525692457483891,0,-3,-1,0,-4,-4,-1,-1
1525692457483891,-2,16,3,0,-2,-2,-1,-2
1525692457496892,1,2,8,-3,-1,-1,-1,1
1525692457496892,-2,-16,-7,-5,-2,0,-1,-1
1525692457504893,-5,7,-8,3,2,0,-2,-3
1525692457504893,3,-2,3,11,3,2,-1,0
1525692457519893,-1,-7,2,-2,2,0,-1,2
1525692457519893,-1,3,3,2,-2,-4,0,0
1525692457520893,0,-6,0,-2,-4,-5,0,-2
1525692457520893,-2,-3,1,-8,-1,0,-1,-1
1525692457542895,0,-10,-5,0,0,-2,1,2
1525692457542895,2,20,6,11,-1,2,-1,-1
1525692457543895,-2,-31,-1,-2,-1,1,-1,-1
1525692457543895,-2,22,4,-1,-2,-4,-1,-3
1525692457556895,-2,-11,-10,-6,-2,-8,-2,0
1525692457556895,-1,-14,-5,-8,0,7,1,-2
1525692457564896,1,7,1,4,2,3,1,1
1525692457564896,-2,-3,1,-4,-3,-1,-1,0
1525692457579897,2,1,2,3,0,-2,1,1
1525692457579897,-2,0,2,3,0,-3,-4,-2
1525692457580897,1,0,-5,-3,1,-2,-2,-1
1525692457580897,1,6,1,-4,-2,-1,0,0
1525692457602898,-8,7,6,-3,-2,2,-2,-4
1525692457602898,-1,-19,-1,-7,0,0,0,0
1525692457603898,-1,-17,-19,0,1,1,-2,-1
1525692457603898,1,11,2,1,1,-3,-1,1
1525692457625899,-2,21,10,-1,-7,-4,-2,-6
1525692457625899,1,4,-17,-4,-4,2,0,0
1525692457626899,-1,2,17,0,3,-5,1,1
1525692457626899,1,-9,-10,-7,-3,2,4,0
1525692457639900,1,-13,4,14,5,-3,-2,2
1525692457639900,-2,7,9,2,2,9,0,-1
1525692457640900,0,7,-7,-7,-9,-17,2,0
1525692457640900,-1,-13,-6,-4,3,36,-2,-3
1525692457662902,3,-1,-2,-1,0,-4,0,0
1525692457662902,-2,-3,-2,1,2,-7,-3,1
1525692457663902,-4,8,-4,2,-1,1,-1,-1
1525692457663902,-3,-5,4,1,-4,-15,-1,-1
1525692457676902,1,-9,-3,-4,0,6,0,1
1525692457676902,0,11,-1,3,-1,-4,1,0
1525692457684903,-2,-12,2,0,-1,0,-1,-1
1525692457684903,-2,-5,1,1,0,-11,-3,-1
1525692457699904,-1,-2,-10,-4,0,4,-1,-2
1525692457699904,2,7,2,2,-2,-7,-1,-1
1525692457700904,-3,7,3,10,1,4,-1,-1
1525692457700904,-1,2,-6,-1,-5,-6,-2,-2
1525692457722905,2,-3,-2,1,3,-3,0,-1
1525692457722905,-2,-1,2,-5,-1,3,0,-2
1525692457723905,-2,10,2,-9,-4,4,-1,-1
1525692457723905,1,-2,-3,12,5,-1,0,2
1525692457736906,1,3,6,5,0,-3,-1,-2
1525692457736906,0,-17,-4,-2,-3,-1,0,0
1525692457744906,-1,-4,4,-10,-3,2,-2,0
1525692457744906,-2,-15,-17,-8,-3,-8,-2,-3
1525692457759907,0,9,3,-4,-2,1,0,0
1525692457759907,2,9,7,2,1,1,-2,-1
1525692457760907,2,0,5,3,1,-1,0,0
1525692457760907,-3,1,6,-4,1,-1,0,-1
1525692457782908,1,-4,14,3,-1,0,0,0
1525692457782908,-2,-9,-51,-6,-4,-3,0,0
1525692457783908,0,1,3,0,-4,-2,-2,-1
1525692457783908,-3,9,6,4,0,-2,-2,-1
1525692457805910,-1,-8,-6,-12,-2,1,1,-1
1525692457805910,-2,-4,13,3,-1,0,1,2
1525692457806910,-1,-4,-7,10,0,-2,-3,-2
1525692457806910,1,4,-1,-4,2,1,1,0
1525692457819911,1,17,6,5,2,-5,1,1
1525692457819911,-4,-33,-3,-1,1,5,0,-3
1525692457820911,0,17,-2,6,1,1,0,-2
1525692457820911,-1,-5,4,-10,-12,-6,-3,-4
1525692457842912,-3,3,-15,-15,-10,-4,-3,-2
1525692457842912,2,13,13,9,12,-3,1,0
1525692457843912,1,-5,4,8,9,6,4,3
1525692457843912,2,-4,-2,8,5,1,0,1
1525692457865913,-4,-10,-11,-7,-3,-2,-3,-1
1525692457865913,-2,-4,-1,-6,-9,-3,-4,-6
1525692457866913,-2,4,3,-8,-5,-4,-1,-2
1525692457866913,1,8,0,1,1,0,0,1
1525692457879914,1,-13,-5,3,-1,1,0,-2
1525692457879914,0,-5,0,-9,-3,-2,-2,-2
1525692457880914,0,13,0,-1,0,-3,-1,-1
1525692457880914,0,4,1,-4,-10,-6,-1,-3
1525692457902915,-1,-22,-10,2,4,3,1,0
1525692457902915,-1,13,10,7,8,5,2,2
1525692457903915,1,-7,-3,1,1,1,-1,0
1525692457903915,-1,-4,-1,-4,-3,1,0,2
1525692457925917,-1,9,4,0,-2,0,-3,-2
1525692457925917,0,-18,-1,-3,4,-2,-2,-2
1525692457926917,-2,22,-4,-5,-9,-4,-2,-2
1525692457926917,-1,-52,20,0,-6,0,-1,1
1525692457939917,0,11,-31,-2,2,0,2,-3
1525692457939917,-3,0,3,-4,-5,-4,-2,0
1525692457940917,-2,3,1,-2,-4,-3,-1,2
1525692457940917,-1,5,-2,-5,9,-2,-1,-1
1525692457962919,-2,-2,17,14,6,5,-2,-1
1525692457962919,-1,8,-4,-3,-7,2,0,-2
1525692457963919,0,-14,0,-2,-2,1,1,1
1525692457963919,1,10,-1,0,-4,-1,-1,0
1525692457985920,-2,-1,-1,-14,-1,-2,-1,-3
1525692457985920,0,0,-4,7,-2,4,-1,-3
1525692457986920,2,-1,-1,-2,-4,-4,-1,-1
1525692457986920,3,12,1,-3,3,-2,-1,0
1525692457999921,1,-11,-1,-2,-4,0,-3,-3
1525692457999921,1,1,-11,-3,-7,-4,0,3
1525692458000921,-3,-7,-3,-1,7,-2,-3,-1
1525692458000921,-2,-2,-9,6,7,8,0,-5
1525692458022922,-1,14,11,3,-4,1,-1,3
1525692458022922,-2,-12,-9,-7,-7,-4,-1,-2
1525692458023922,2,11,0,-1,2,-4,0,2
1525692458023922,-1,5,-3,2,0,-6,-1,1
1525692458045923,-4,-34,-14,0,-1,-2,-1,-1
1525692458045923,2,16,9,-1,2,2,0,0
1525692458046924,0,-4,-2,-6,-1,-1,0,0
1525692458046924,-1,12,-3,0,0,1,-1,-1
1525692458059924,1,1,5,-1,-4,-1,-1,0
1525692458059924,-2,-2,3,2,5,-3,-2,0
1525692458060924,0,1,19,-1,-1,3,0,-1
1525692458060924,-3,-23,-18,-1,-3,-1,-3,0
1525692458082926,-2,-1,-15,-5,-3,-3,-1,0
1525692458082926,2,7,8,4,2,-2,-1,0
1525692458083926,1,2,-4,2,-1,4,-2,-1
1525692458083926,-4,9,20,1,-1,1,0,2
1525692458105927,2,1,0,1,3,0,-1,2
1525692458105927,-1,8,-2,1,3,2,1,6
1525692458106927,0,-8,1,1,-2,-1,-10,-12
1525692458106927,2,-11,-8,-1,-1,2,7,7
1525692458119928,-1,20,5,-2,0,-2,-4,-13
1525692458119928,2,-5,4,-1,-1,-4,2,4
1525692458120928,-4,-28,-30,-7,-1,1,1,5
1525692458120928,0,5,-6,-3,-4,-6,-1,-2
1525692458142929,-1,5,3,-1,-1,6,0,1
1525692458142929,-1,7,13,3,0,-1,-4,-3
1525692458143929,0,-8,-7,-5,0,17,1,0
1525692458143929,-2,3,-6,-1,0,-1,-2,-5
1525692458165930,-1,15,11,2,0,-1,0,0
1525692458165930,-1,-12,-3,-5,-4,-7,-2,-5
1525692458166930,-2,3,-13,-3,-2,-8,1,-2
1525692458166930,1,5,6,3,-3,0,1,1
1525692458179931,-2,-4,1,1,2,-2,0,0
1525692458179931,0,13,-5,-11,-6,-2,-1,-1
1525692458180931,0,-4,-1,7,3,-4,0,-1
1525692458180931,-1,12,21,10,6,2,-3,-3
1525692458202932,-1,9,10,-5,-6,-7,-1,1
1525692458202932,-4,-50,-58,-6,-8,-13,0,-3
1525692458203932,-1,9,18,-4,-3,11,1,-1
1525692458203932,1,-10,-3,-3,3,-6,-2,0
1525692458225934,1,6,5,6,2,0,0,1
1525692458225934,-2,6,13,-4,-1,5,-1,-2
1525692458226934,1,-9,1,4,1,-7,-1,0
1525692458226934,-2,1,-14,-4,-4,-3,-1,-1
1525692458239935,-1,-9,1,2,2,1,0,-1
1525692458239935,0,2,6,2,5,2,1,1
1525692458240935,-2,3,-6,2,0,-4,0,3
1525692458240935,2,0,5,-2,-3,0,-2,-6
1525692458262936,-2,-4,-4,-5,-3,-5,0,1
1525692458262936,-2,2,8,4,1,14,0,0
1525692458263936,-2,11,-8,-5,-2,-5,-3,-2
1525692458263936,-2,-8,-1,-6,-3,1,0,0
1525692458285937,-2,-37,-20,-1,-2,0,-2,-1
1525692458285937,3,17,8,5,1,2,0,-1
1525692458286937,0,-6,4,-1,1,-1,1,2
1525692458286937,-2,12,-6,-6,-2,-2,-3,-1
1525692458299938,0,0,0,-1,-2,-2,-2,-1
1525692458299938,-2,0,5,-2,-2,1,0,-1
1525692458300938,-3,1,-4,0,-6,-2,4,-1
1525692458300938,-3,-6,-6,1,5,0,-11,-2
1525692458322939,-1,-5,1,-1,-1,-1,2,0
1525692458322939,0,1,-1,0,-2,-5,-1,1
1525692458323939,3,3,1,-9,0,-3,-1,-3
1525692458323939,-1,-3,-2,8,-1,1,1,0
1525692458345941,-1,-1,-1,-2,-1,1,-3,-1
1525692458345941,1,10,0,-3,-4,-4,0,0
1525692458346941,-2,-8,-2,-1,-3,-3,-1,-1
1525692458346941,0,-6,-2,-4,0,2,0,1
1525692458359941,2,6,-1,-1,-4,0,-3,-3
1525692458359941,0,0,-1,0,3,-2,-1,-2
1525692458360941,2,-5,1,2,1,-1,-2,0
1525692458360941,-1,-8,0,4,5,0,2,1
1525692458382943,-1,8,0,4,-2,-3,-1,0
1525692458382943,-1,-3,-2,-6,-9,-2,-4,-1
1525692458383943,-2,-6,-1,5,3,2,2,0
1525692458383943,2,0,-7,-2,1,-1,0,-1
1525692458405944,-2,-1,2,-4,-1,0,0,-1
1525692458405944,1,-1,0,1,-1,-1,0,-2
1525692458407944,0,28,8,1,0,-1,-3,0
1525692458407944,-4,-65,-7,-5,-6,-2,1,-2
1525692458419945,-3,12,-12,-8,0,4,0,-1
1525692458419945,-1,12,6,3,3,-4,-4,-2
1525692458428945,-6,-24,-11,0,-5,-4,-1,-1
1525692458428945,3,25,12,2,1,5,1,2
1525692458442946,-1,-5,25,-2,-2,-3,-2,-4
1525692458442946,-4,-4,-44,-6,-4,-2,-1,-1
1525692458449947,-1,8,8,0,3,0,-3,0
1525692458449947,-3,-4,-3,4,-3,-4,0,-1
1525692458465947,3,0,0,3,-2,-2,0,1
1525692458465947,3,6,15,5,5,1,0,1
1525692458467948,2,-11,3,-5,-3,-4,-2,-2
1525692458467948,-2,5,-8,-11,-6,-1,0,0
1525692458479948,2,4,-3,-4,-1,-2,0,1
1525692458479948,-2,-5,8,0,0,-2,0,-1
1525692458488949,2,-5,-6,3,0,3,-1,-2
1525692458488949,2,15,5,-1,1,0,0,0
1525692458502950,-3,-4,-7,-6,-2,0,0,0
1525692458502950,3,-6,3,3,-4,-1,-2,-2
1525692458504950,-4,0,-1,-1,2,0,0,-1
1525692458504950,2,6,4,5,1,-3,0,-2
1525692458525951,-1,-4,-10,-3,-1,-1,-1,0
1525692458525951,0,-5,-1,4,2,1,0,0
1525692458527951,0,2,4,6,-1,-1,0,1
1525692458527951,-4,-1,-2,-5,-4,-4,-3,-4
1525692458538952,0,-1,-5,-3,-3,1,0,0
1525692458538952,-1,0,6,3,0,-5,0,-2
1525692458548952,0,-1,-4,-5,-2,1,-1,0
1525692458548952,-2,2,-3,1,-3,-1,0,-1
1525692458563953,0,7,-1,3,2,1,-2,0
1525692458563953,-4,0,2,-2,0,4,0,-1
1525692458565953,-3,-1,-5,-2,1,-2,-1,-1
1525692458565953,0,1,0,-3,0,0,-2,0
1525692458585954,0,-7,4,1,-1,-1,-1,-1
1525692458585954,0,7,-4,-4,-3,1,0,1
1525692458587954,-2,-3,1,3,0,0,0,0
1525692458587954,0,-2,-1,-1,-1,0,-1,0
1525692458599955,-4,6,-2,2,0,0,0,1
1525692458599955,1,-9,-2,-1,2,0,-1,-2
1525692458608956,-2,-4,4,0,-5,-2,-3,-1
1525692458608956,2,3,-1,-5,2,-1,0,0
1525692458623957,1,-7,0,0,0,0,1,-1
1525692458623957,-1,0,1,1,0,-1,0,0
1525692458625957,3,-1,1,10,-1,-1,-1,-1
1525692458625957,-3,6,2,3,-2,-1,0,-2
1525692458645958,1,1,-8,0,1,-1,-3,-1
1525692458645958,-2,-4,5,-4,-1,0,1,0
1525692458647958,2,3,-2,-3,-2,-1,-2,-1
1525692458647958,-1,-1,2,-1,0,-1,0,-1
1525692458659959,0,-3,0,2,0,-1,2,-1
1525692458659959,-1,0,-1,-3,-6,0,-2,0
1525692458668959,1,-5,-4,-1,2,1,2,1
1525692458668959,0,10,-3,-3,-1,0,-2,0
1525692458681960,0,-7,6,-2,0,-1,-1,0
1525692458681960,-2,-5,-5,0,-2,-1,-1,0
1525692458690960,-3,-2,-2,-6,-4,3,1,-2
1525692458690960,1,5,-2,-1,0,-2,-3,0
1525692458705961,0,-12,4,7,5,1,1,-1
1525692458705961,1,-2,0,-1,0,-1,-1,-2
1525692458707961,0,-2,-3,-4,-5,-2,-1,0
1525692458707961,-1,-1,-2,-1,-3,0,1,0
1525692458727962,-1,1,0,-4,-5,-3,0,1
1525692458727962,-1,14,2,3,1,-1,-1,-2
1525692458729963,1,-42,-5,-2,2,2,1,-2
1525692458729963,-1,15,-2,-3,-4,-2,-1,-1
1525692458743963,-1,1,-2,0,0,-3,-2,-2
1525692458743963,-1,0,4,-1,-3,-1,-2,0
1525692458745963,1,6,-2,7,8,2,-1,1
1525692458745963,-2,-3,-2,-5,-3,-2,-2,-1
1525692458765965,-1,-1,1,6,-1,2,0,-1
1525692458765965,-2,5,-7,-18,-4,-2,-1,-2
1525692458767965,-1,9,8,15,-4,-5,-1,2
1525692458767965,1,-13,-5,-3,1,0,-3,-2
1525692458787966,0,7,-3,-3,3,3,-1,-2
1525692458787966,1,-4,6,6,0,2,1,0
1525692458789966,-1,1,-9,-13,-5,-4,-3,-2
1525692458789966,0,-10,-3,-3,-5,-2,1,-1
1525692458803967,-1,0,0,1,-2,-3,-1,-1
1525692458803967,3,-7,-2,1,2,-1,0,1
1525692458805967,-3,5,1,-4,1,0,0,0
1525692458805967,-2,-2,0,3,0,0,-1,-1
1525692458825968,1,-1,-5,-3,2,0,-2,0
1525692458825968,0,-4,-1,4,-1,-1,-1,-2
1525692458827968,0,10,1,-6,-5,-3,-1,-1
1525692458827968,2,-5,1,1,3,-1,1,0
1525692458847969,0,-3,-3,-3,-2,0,-1,1
1525692458847969,-3,-4,-1,3,-1,-1,-1,-3
1525692458849969,2,17,-1,1,-1,-2,-2,0
1525692458849969,-2,-7,2,1,3,0,1,0
1525692458863970,-4,6,-5,-2,-4,1,1,1
1525692458863970,1,4,-3,2,3,2,-1,1
1525692458865970,-2,-1,0,-4,-2,-1,-2,-2
1525692458865970,2,6,0,-1,-1,-1,-2,-2
1525692458885972,-3,0,3,1,-3,-1,0,-3
1525692458885972,0,-1,1,-1,-3,-3,1,1
1525692458887972,-2,0,-1,-4,2,0,-1,0
1525692458887972,-1,-6,-3,-7,-1,-2,-1,-1
1525692458907973,0,0,-2,-7,-5,-2,-2,0
1525692458907973,-1,-5,0,3,-1,-3,-2,0
1525692458909973,0,-4,-2,-5,0,0,-1,1
1525692458909973,-1,1,3,15,3,4,0,2
1525692458922974,0,-5,-3,-5,0,0,-1,1
1525692458922974,-3,1,-1,-6,-5,-2,-1,-4
1525692458929974,-1,-2,-4,-3,-1,-2,0,0
1525692458929974,-2,2,-1,-1,-3,-1,0,-2
1525692458945975,-2,-6,-7,-4,0,-3,-2,0
1525692458945975,-1,-5,-2,2,0,1,0,1
1525692458947975,0,1,-1,-2,-3,-1,2,-1
1525692458947975,0,0,2,-2,-2,-2,0,-1
1525692458967976,1,-1,1,10,1,-1,0,-1
1525692458967976,-2,-2,0,-7,0,0,-4,-2
1525692458969976,1,0,1,0,3,3,-1,-1
1525692458969976,-1,0,-1,1,0,0,-2,-2
1525692458982977,-3,4,0,-1,-2,0,-1,-2
1525692458982977,0,8,0,-1,1,-2,-1,-1
1525692458989977,1,-13,-3,-2,-6,-1,-1,1
1525692458989977,-2,0,-6,-1,2,-2,1,-1
1525692459005978,1,0,0,2,2,0,-1,-1
1525692459005978,-1,-1,-2,1,-1,0,-1,0
1525692459007978,-2,0,0,2,-4,0,-1,-4
1525692459007978,1,-5,1,-4,-2,-2,-1,-1
1525692459027980,-1,-1,-3,-4,-2,-2,-2,0
1525692459027980,0,1,-1,2,0,0,1,-1
1525692459029980,-2,-1,-1,-1,0,-2,0,-2
1525692459029980,-2,0,4,-5,-2,0,-1,-1
1525692459042980,-1,2,3,3,2,0,0,-1
1525692459042980,0,1,-6,0,-1,-1,-1,0
1525692459049981,1,-44,1,0,1,-2,-1,0
1525692459049981,-3,15,-6,-2,0,1,1,0
1525692459065982,1,-2,5,4,-1,0,0,1
1525692459065982,-2,0,2,-1,-1,-1,0,-1
1525692459067982,1,4,-5,-5,-1,-3,-1,0
1525692459067982,-2,-2,-2,-2,-1,-2,-1,-1
1525692459087983,-1,1,2,-3,-5,-3,-2,-1
1525692459087983,-1,-2,-1,2,1,0,-1,-2
1525692459089983,0,11,3,4,3,1,1,1
1525692459089983,-1,-11,-8,-7,-1,0,0,0
1525692459102984,1,6,-3,3,-1,-1,-2,-1
1525692459102984,-2,-6,1,0,-3,-2,-3,-2
1525692459109984,-1,9,3,-5,0,-1,-1,-2
1525692459109984,0,-5,-3,-3,-4,-1,-1,-2
1525692459125985,-1,-3,0,-3,2,0,-1,2
1525692459125985,-1,0,-7,-2,2,-2,-1,-7
1525692459127985,-3,4,-2,1,-2,2,-1,1
1525692459127985,2,1,1,0,0,1,-1,1
1525692459147986,0,0,0,-2,-3,-2,0,0
1525692459147986,1,-4,2,-1,0,-1,1,3
1525692459149987,0,5,1,-3,-2,-3,-2,0
1525692459149987,-1,-3,-1,1,-4,-3,-1,-1
1525692459162987,-2,4,-5,-6,-4,-1,0,-2
1525692459162987,-2,-17,-2,5,1,-1,1,3
1525692459169988,0,4,3,5,4,3,1,-3
1525692459169988,1,1,1,-2,0,2,-2,0
1525692459185989,0,-9,-10,-8,-3,-3,-2,-1
1525692459185989,-1,1,2,-2,-1,-2,-1,-1
1525692459187989,-2,4,-4,-1,1,-3,0,1
1525692459187989,3,-4,3,5,0,-3,-1,1
1525692459207990,-4,-1,2,-2,1,4,0,-1
1525692459207990,0,6,0,5,-1,0,-1,0
1525692459209990,1,-6,-3,-4,-2,-2,0,0
1525692459209990,-4,10,6,5,-2,-1,-2,-3
1525692459221991,1,-6,-12,-2,2,-1,1,-1
1525692459221991,2,11,3,-1,1,0,1,0
1525692459230991,0,-4,5,2,1,-2,-1,-1
1525692459230991,-4,19,-12,-5,-2,-2,-1,-3
1525692459245992,-2,-16,4,4,-2,-3,-1,-1
1525692459245992,0,-7,-5,-2,4,2,0,0
1525692459247992,0,9,0,-2,-6,-2,-2,-1
1525692459247992,0,-18,-4,2,3,4,1,1
1525692459267993,-2,8,1,-1,2,-1,-2,-1
1525692459267993,-2,5,0,-2,-1,0,-1,-1
1525692459269993,-3,-4,-2,2,2,1,1,1
1525692459269993,-1,-2,4,-4,-2,-3,-1,-1
1525692459281994,0,-1,-1,-2,-2,-1,-2,-2
1525692459281994,-3,-3,1,-3,0,0,0,0
1525692459290995,0,2,-2,-1,0,-1,-1,-2
1525692459290995,-2,-8,-5,-2,-2,-1,-1,-1
1525692459305996,0,9,14,6,1,0,-2,-1
1525692459305996,1,1,-7,-5,-4,-1,-2,-1
1525692459307996,-4,0,-1,2,0,-3,-1,-1
1525692459307996,3,1,3,-1,1,-1,0,0
1525692459327997,0,-5,-4,-2,-4,-4,0,-3
1525692459327997,-1,0,-2,-3,-4,0,-2,2
1525692459329997,-1,-5,-1,4,8,0,-1,-1
1525692459329997,-2,-6,-2,-1,2,-1,-1,-1
1525692459341998,1,1,-1,0,-2,0,-1,-1
1525692459341998,0,1,0,-2,-4,-1,0,-2
1525692459350998,-2,5,-1,-6,-2,-2,-3,-1
1525692459350998,-1,-3,-3,-1,3,1,1,-1
1525692459365999,2,1,-4,-2,-2,-2,0,1
1525692459365999,-1,-4,-2,0,-1,-1,-1,-3
1525692459367999,4,12,2,0,0,2,0,0
1525692459367999,2,-23,-3,-1,-1,-1,-2,0
1525692459388000,-6,21,-8,-5,-3,-3,-1,-1
1525692459388000,-1,-12,-3,-1,-4,-2,2,-1
1525692459390000,-2,-2,1,-1,-2,-1,-1,-1
1525692459390000,1,-2,-3,2,1,0,-2,-1
1525692459402001,2,5,3,3,6,1,0,1
1525692459402001,-2,-2,2,-2,1,-3,0,-1
1525692459411002,0,7,-8,-5,-4,-2,0,-1
1525692459411002,-2,2,5,4,-2,-1,1,1
1525692459426002,0,-12,-3,-2,-3,2,-3,-2
1525692459426002,0,3,8,6,3,1,-1,2
1525692459428003,-2,-7,-2,-1,-2,1,-1,-1
1525692459428003,-3,8,0,-5,-4,-3,0,-1
1525692459448004,-1,-4,1,1,1,-2,1,0
1525692459448004,-1,3,-3,-3,-3,-2,0,-2
1525692459450004,-1,-4,-4,-2,-4,-2,-1,-2
1525692459450004,-1,-6,-5,-2,3,1,-3,-1
1525692459462004,-1,0,-3,2,1,0,0,0
1525692459462004,-1,-7,0,-2,-1,-1,-1,0
1525692459471005,-5,-1,1,0,1,-1,0,-2
1525692459471005,1,5,3,0,-3,-1,0,-1
1525692459486006,-1,-8,-1,0,-2,0,1,1
1525692459486006,0,-1,-2,1,4,1,-2,-2
1525692459488006,3,12,1,0,-2,-1,1,0
1525692459488006,-3,-25,2,-2,0,-1,0,-2
1525692459508007,-4,11,-6,-4,-3,-2,-3,-2
1525692459508007,2,1,-1,-2,-3,-2,0,0
1525692459510007,0,-3,1,-1,-1,-1,-2,-1
1525692459510007,-2,7,-6,-1,-5,-3,-2,0
1525692459522008,-1,-7,7,7,5,3,0,2
1525692459522008,-2,-1,3,1,-2,-2,-2,-1
1525692459531008,0,-9,-11,-7,-4,-1,-2,-1
1525692459531008,0,3,-7,1,-3,-2,-1,-2
1525692459546009,0,-7,2,-3,-7,-2,0,-3
1525692459546009,1,12,4,0,0,0,-1,-1
1525692459548009,-2,-9,2,3,0,-2,0,1
1525692459548009,0,2,2,-1,0,1,0,1
1525692459568011,0,5,-8,-3,0,0,2,-1
1525692459568011,-1,-9,2,-5,1,2,0,1
1525692459570011,-3,-19,-11,-5,-3,-1,-2,-3
1525692459570011,2,8,1,1,-1,-1,1,0
1525692459582011,0,4,6,5,2,-1,-3,0
1525692459582011,0,-2,-5,-5,-4,-3,-2,0
1525692459591012,0,-2,3,2,0,-2,-2,-2
1525692459591012,0,5,1,0,0,-1,0,0
1525692459606013,-1,5,3,-1,-1,1,-2,1
1525692459606013,-3,-33,-8,0,0,-2,0,-2
1525692459608013,1,6,3,0,-1,0,1,1
1525692459608013,-1,3,5,1,1,0,0,-1
1525692459628014,-1,2,-5,-3,-1,-3,0,-1
1525692459628014,-4,0,-3,-5,-3,-2,-1,0
1525692459630014,-2,-1,-3,-1,-1,0,-2,1
1525692459630014,-2,9,6,7,-2,-2,-1,-1
1525692459651015,1,-8,-4,-2,0,3,1,1
1525692459651015,0,22,7,-1,-2,0,-2,-1
1525692459653015,-1,-27,-3,1,-1,1,0,1
1525692459653015,-7,3,-6,-9,-4,-2,-3,-2
1525692459665016,0,-4,4,3,1,-3,-1,-1
1525692459665016,-1,4,-1,3,0,2,0,-1
1525692459672016,-1,15,6,1,-1,-2,-1,-2
1525692459672016,2,-4,1,-1,-1,0,-1,1
1525692459688017,0,-11,-4,-2,-2,-1,-1,-1
1525692459688017,1,11,-2,0,0,-1,0,-1
1525692459690017,0,11,0,1,3,0,1,2
1525692459690017,1,3,-2,-5,1,2,1,1
1525692459711019,-2,-45,-5,2,1,-2,-3,-4
1525692459711019,-3,6,-6,1,-3,-3,0,0
1525692459713019,0,7,-5,-4,-2,-2,0,-4
1525692459713019,-1,0,2,-2,2,-2,-3,-1
1525692459726020,3,9,-3,-3,-3,-2,0,1
1525692459726020,1,-4,1,2,1,0,0,1
1525692459728020,-1,-9,1,4,0,0,0,-1
1525692459728020,-2,9,1,0,-2,-1,-1,0
1525692459748021,0,7,4,-1,-2,-3,1,0
1525692459748021,-2,-12,-3,1,0,0,-1,0
1525692459750021,1,9,-1,-2,0,1,2,3
1525692459750021,-1,-11,-6,-1,-4,-2,0,-6
1525692459771022,-4,6,1,1,2,1,0,-1
1525692459771022,1,-1,3,4,2,0,0,0
1525692459773022,0,2,-1,-2,-3,0,1,0
1525692459773022,1,-8,-3,0,1,0,-1,3
1525692459786023,-4,7,-1,-4,-3,0,-1,-1
1525692459786023,1,-1,-5,-2,-2,-1,0,-1
1525692459788023,1,-5,1,1,0,0,0,0
1525692459788023,-1,1,-2,-3,-4,-1,-1,0
1525692459808024,0,-3,3,2,-1,-1,-1,-1
1525692459808024,1,24,-1,-7,-2,-3,-2,0
1525692459810024,-4,-53,-5,1,0,0,0,-3
1525692459810024,-2,32,-3,0,-1,-2,-2,-2
1525692459831026,-1,1,-2,-1,-3,-2,-1,0
1525692459831026,1,-5,1,-1,-3,0,0,0
1525692459833026,3,18,5,-1,7,-1,0,-1
1525692459833026,-1,-2,10,3,1,1,0,-1
1525692459845026,-1,-21,-8,1,2,0,0,-1
1525692459845026,-1,8,-1,-5,-2,-2,-1,-2
1525692459852027,-2,8,-1,-2,-1,0,1,-1
1525692459852027,2,-13,2,-4,-4,0,0,1
1525692459868028,-1,7,-2,-3,-2,-1,-2,-1
1525692459868028,-1,-6,2,-1,0,0,-3,-1
1525692459870028,-2,-19,-21,-5,-2,-2,-2,0
1525692459870028,0,-6,6,6,6,4,2,1
1525692459891029,0,1,2,-2,-2,-1,-1,1
1525692459891029,-1,-8,-5,-3,-3,0,-2,-2
1525692459893029,-1,10,10,6,-5,-3,-2,-2
1525692459893029,-2,-1,-7,-4,-1,-1,-2,-2
1525692459905030,2,-2,-2,-1,0,-1,-2,-2
1525692459905030,0,4,3,0,3,0,0,-2
1525692459919031,-2,-2,4,2,-2,0,-1,0
1525692459919031,1,-11,-15,-3,-5,-1,-1,-1
1525692459928031,1,4,10,0,2,-1,0,0
1525692459928031,0,10,-2,0,0,-1,0,0
1525692459930031,0,-36,0,-4,-3,-2,0,-2
1525692459930031,-2,11,0,-4,-2,-1,0,3
1525692459951032,-1,-10,-8,2,2,0,0,-6
1525692459951032,-1,3,2,0,0,2,0,1
1525692459953033,2,11,-1,1,-2,0,1,-1
1525692459953033,-1,-9,4,1,0,-2,-1,0
1525692459965033,-1,7,-2,-3,2,1,0,1
1525692459965033,-4,-11,-2,5,-3,0,1,1
1525692459972034,-2,16,0,-8,-2,0,-1,-2
1525692459972034,2,-11,1,-1,-1,-4,-1,-2
1525692459988035,0,20,1,4,-1,-2,0,0
1525692459988035,-1,-20,-3,-3,0,-1,1,-2
1525692459990035,2,18,-4,1,0,-3,0,2
1525692459990035,-4,-14,-4,-6,0,-1,-1,-3
1525692460011036,-3,-11,-3,-3,-2,-1,1,-1
1525692460011036,-1,4,-2,4,1,0,-1,1
1525692460013036,0,7,6,-1,2,3,-1,-2
1525692460013036,0,3,0,-1,0,2,0,-1
1525692460025037,-3,2,0,-4,-2,0,-1,0
1525692460025037,-2,-8,-3,-2,-5,-4,0,-2
1525692460032037,-1,15,3,1,1,-1,0,0
1525692460032037,-3,-36,-1,4,4,1,-1,0
1525692460048038,0,4,1,0,-3,0,-1,-1
1525692460048038,-1,0,-8,-4,-5,-1,-1,-2
1525692460050038,0,2,-2,-3,-3,-4,-2,-1
1525692460050038,-2,5,-2,2,1,1,0,1
1525692460071039,0,-6,1,-1,0,1,0,2
1525692460071039,-1,-1,2,5,2,0,0,-2
1525692460073039,-1,-2,-3,-2,0,-1,-1,-1
1525692460073039,0,1,-5,-2,-3,-1,1,0
1525692460085040,0,0,-2,-1,-4,-3,-2,2
1525692460085040,-2,0,3,0,2,-1,1,1
1525692460092040,1,2,0,1,-2,1,-1,1
1525692460092040,-1,2,6,1,3,-2,-1,-3
1525692460108041,3,21,7,-1,0,1,-2,-1
1525692460108041,-2,-37,-15,-4,-3,0,-1,0
1525692460110042,-5,9,-10,-3,0,-2,-2,-2
1525692460110042,-3,7,2,0,-4,0,-1,-2
1525692460131043,-3,-1,1,2,2,0,2,0
1525692460131043,2,12,12,0,0,0,-1,1
1525692460133043,0,-7,1,0,0,1,1,0
1525692460133043,1,18,-7,-2,-2,-3,-2,0
1525692460144043,-1,-17,3,-1,0,-2,0,-4
1525692460144043,-2,19,1,-5,-1,1,0,-1
1525692460154044,0,-23,-7,-2,-2,1,0,-1
1525692460154044,-1,22,-3,-4,-3,-1,-3,-3
1525692460168045,-2,0,4,0,-1,-3,0,0
1525692460168045,-3,-5,-5,10,5,0,-1,-1
1525692460170045,2,7,9,-2,-1,-3,0,0
1525692460170045,-1,-3,-4,-4,-1,0,1,0
1525692460191046,0,-8,-7,-7,-3,0,-1,-1
1525692460191046,-1,10,-2,-3,-4,-1,-2,-2
1525692460193046,-3,-10,-2,0,0,-2,-2,-2
1525692460193046,1,-9,4,6,3,-2,0,2
1525692460204047,-1,6,0,1,-1,2,-1,-2
1525692460204047,0,-10,-1,-2,-2,-1,-2,0
1525692460214047,-1,-5,-5,-3,-2,-3,-1,2
1525692460214047,-1,-4,0,-4,-4,-1,-1,-6
1525692460228048,-1,3,-4,1,0,-2,-1,1
1525692460228048,0,-1,2,-3,-2,0,-1,-2
1525692460230048,0,-11,-1,1,2,-1,-2,-1
1525692460230048,0,12,-1,-2,-1,-1,0,-1
1525692460251050,0,-7,-3,-1,-3,-2,-1,-1
1525692460251050,2,12,6,1,4,-2,-2,0
1525692460253050,-2,14,7,-4,-3,0,-1,-2
1525692460253050,1,0,7,0,-1,0,-1,2
1525692460264050,-2,-25,-30,-5,-4,1,0,-2
1525692460264050,-2,1,0,6,0,-2,-1,-1
1525692460274051,0,4,0,2,4,0,2,1
1525692460274051,-1,8,5,-3,-3,-1,-2,-2
1525692460288052,2,10,8,0,0,-1,-2,0
1525692460288052,-2,-5,-2,-6,-2,-1,-1,-2
1525692460290052,-2,-30,-14,-3,0,0,-2,-2
1525692460290052,-2,4,0,-1,-5,-1,1,0
1525692460311053,1,-3,1,2,5,1,0,0
1525692460311053,0,-1,-2,0,-1,0,1,-1
1525692460313053,1,12,8,2,-3,-3,0,-2
1525692460313053,0,-18,-13,-6,-5,-2,0,-1
1525692460324054,-2,2,-1,0,0,0,-2,-1
1525692460324054,1,2,2,3,-1,2,0,0
1525692460334054,-2,1,-3,0,-5,0,0,0
1525692460334054,0,-3,2,-6,-2,-2,-2,-2
1525692460348055,-1,5,2,1,1,0,1,0
1525692460348055,0,-8,-2,6,-1,0,1,0
1525692460350055,-2,16,4,-6,-1,0,1,0
1525692460350055,0,-8,-3,5,3,0,1,0
1525692460371056,-3,-29,-4,-5,-3,-4,0,-3
1525692460371056,0,2,-4,-2,0,0,-1,2
1525692460373057,0,13,-3,-2,-2,0,1,-5
1525692460373057,0,13,2,1,-1,-1,1,1
1525692460384057,-1,-3,2,0,-1,-2,1,0
1525692460384057,-2,-13,-5,-4,-2,-2,-1,-2
1525692460394058,-3,7,-2,-1,0,0,-1,0
1525692460394058,-1,-13,-4,0,1,-1,-2,1
1525692460408059,-2,7,5,8,1,0,0,-1
1525692460408059,-2,2,-6,-6,-1,-1,-3,0
1525692460410059,-1,0,-2,-4,-1,-2,-2,-1
1525692460410059,-2,-11,-1,0,1,0,0,-1
1525692460431060,0,1,4,6,-3,-2,0,0
1525692460431060,-3,5,-3,-6,-2,-3,-2,-3
1525692460433060,-1,-8,2,4,5,3,2,0
1525692460433060,-2,-7,-8,-2,-4,0,-1,-1
1525692460444061,-2,12,2,1,1,-1,0,-1
1525692460444061,1,-1,4,3,-3,-1,-1,-1
1525692460454061,2,-11,-4,0,-1,-1,-3,0
1525692460454061,-1,4,2,-2,-2,-2,1,-1
1525692460468062,0,5,-3,-5,-4,-2,-3,-1
1525692460468062,-2,-12,-5,2,1,-2,1,-2
1525692460470062,0,-1,1,3,-3,-2,-1,2
1525692460470062,3,3,3,0,3,0,-2,1
1525692460491063,-2,0,-2,-9,-5,-1,-2,-3
1525692460491063,-1,14,5,-1,-4,-1,1,0
1525692460493063,3,-37,-4,-8,-2,-2,0,1
1525692460493063,-3,18,-1,5,2,0,0,-2
1525692460504064,0,-12,2,0,4,3,1,0
1525692460504064,-4,4,-3,-3,-4,-4,0,-1
1525692460514065,0,9,3,0,1,2,0,-1
1525692460514065,1,-5,1,1,-2,-2,-1,1
1525692460528065,-1,4,-3,3,1,0,-1,-2
1525692460528065,0,-12,-1,-8,-4,-2,-1,0
1525692460530066,0,7,-1,0,-2,-1,-2,-3
1525692460530066,-3,-4,-1,-3,3,2,-1,-1
